11.2056	-4.71875	29.9361	4.99084	0.0219727	0.00274658	-0.0595093	11.2056	-4.71875	29.9361	0.523881	12.8829	-1.67733	0.00274658	-0.0595093	1.67733	
12.8995	-0.71875	30.457	4.98657	0.0256348	0.00213623	0.0201416	11.2059	-4.71813	29.9362	0.523883	12.8829	-1.67705	0.00244141	-0.0196838	1.67705	
14.3328	0.21875	30.7334	4.97681	0.0259399	0.00152588	0.0180054	11.2071	-4.71552	29.9365	0.523889	12.8829	-1.67574	0.00213623	-0.00712077	1.67574	
13.4207	-0.1875	30.0956	4.97986	0.0253296	0.00305176	0.0338745	11.2099	-4.71016	29.9372	0.523902	12.8828	-1.67285	0.00236511	0.00312805	1.67285	
13.2035	-0.5	30.3401	4.97711	0.027771	0.00488281	0.015564	11.2141	-4.70215	29.9381	0.523918	12.8827	-1.66856	0.00286865	0.00561523	1.66856	
12.7258	-0.59375	30.2019	4.97925	0.0247192	0.00183105	0.00152588	11.2193	-4.69179	29.9392	0.523936	12.8825	-1.66319	0.00269572	0.00493368	1.66319	
16.4175	-0.59375	30.457	4.97284	0.0250244	0.00213623	-0.00366211	11.226	-4.67923	29.9405	0.523958	12.8824	-1.6564	0.00261579	0.00370571	1.6564	
12.9864	-0.40625	30.1912	4.98077	0.0256348	0.00213623	-0.0265503	11.2345	-4.66454	29.9419	0.523984	12.8822	-1.6477	0.00255585	-7.62939E-005	1.6477	
13.6813	-0.625	30.3082	4.97711	0.0247192	0.0012207	-0.0408936	11.2444	-4.64779	29.9435	0.524012	12.882	-1.63755	0.0024075	-0.00461155	1.63755	
13.6378	-0.21875	30.4145	4.97528	0.0222778	0.00152588	-0.0296021	11.2554	-4.62903	29.9453	0.524043	12.8817	-1.62632	0.00231934	-0.0071106	1.62632	
14.4196	0.46875	31.0736	4.97284	0.0259399	0.00274658	0.0161743	11.2676	-4.60814	29.9474	0.52408	12.8815	-1.61384	0.00235818	-0.00499379	1.61384	
12.6823	-0.78125	30.3294	4.97681	0.0256348	0.000305176	-0.0143433	11.281	-4.58513	29.9499	0.524124	12.8811	-1.60016	0.00218709	-0.00577291	1.60016	
12.8561	-1.40625	29.9042	4.98322	0.0247192	0.00274658	-0.0262451	11.295	-4.56047	29.9526	0.524171	12.8808	-1.58575	0.00223013	-0.00734769	1.58575	
8.42593	-1.09375	29.9892	4.97681	0.0280762	0.00213623	0.0350952	11.3088	-4.53457	29.9553	0.524218	12.8804	-1.57159	0.00222342	-0.00431606	1.57159	
12.2914	-1.8125	30.0743	4.97559	0.0253296	0.00213623	0.0143433	11.3217	-4.5076	29.9579	0.524263	12.8801	-1.55842	0.00221761	-0.0030721	1.55842	
12.5955	-3.125	30.1912	4.97467	0.0238037	0.00396729	0.057373	11.3341	-4.47998	29.9605	0.524308	12.8798	-1.54565	0.00232697	0.000705719	1.54565	
12.7692	-0.84375	30.1912	4.9765	0.0250244	0.00213623	-0.00671387	11.3469	-4.45194	29.9631	0.524354	12.8794	-1.53255	0.00231575	0.000269273	1.53255	
12.7692	-0.78125	30.3294	4.97742	0.0271606	0.00152588	0.0289917	11.36	-4.42298	29.9658	0.524401	12.8791	-1.51903	0.00227186	0.00186496	1.51903	
12.8126	-0.59375	30.1274	4.97437	0.0259399	0.00152588	-0.00854492	11.3736	-4.39275	29.9685	0.524449	12.8787	-1.50507	0.0022326	0.00131707	1.50507	
11.7268	-1.09375	29.9255	4.97589	0.0268555	-0.000915527	0.0170898	11.3875	-4.36132	29.9713	0.524498	12.8784	-1.49088	0.0020752	0.00210571	1.49088	
11.4228	-1.34375	29.9361	4.97711	0.0247192	0.00152588	0.000915527	11.4012	-4.32893	29.974	0.524544	12.878	-1.47685	0.00204904	0.00204904	1.47685	
12.9429	0.375	30.372	4.97101	0.0262451	0.00305176	-0.015564	11.4147	-4.29551	29.9766	0.52459	12.8777	-1.463	0.00209462	0.00124845	1.463	
14.1156	0.125	30.5633	4.96796	0.0256348	0.00305176	0.000915527	11.4286	-4.26066	29.9793	0.524638	12.8773	-1.44872	0.00213623	0.00123397	1.44872	
13.3338	0.15625	30.372	4.96857	0.0244141	0.000305176	-0.000915527	11.4434	-4.22426	29.9823	0.52469	12.8769	-1.43353	0.00205994	0.00114441	1.43353	
12.9864	-0.1875	30.1062	4.96796	0.0231934	0.00274658	0.0158691	11.4589	-4.18648	29.9853	0.524743	12.8765	-1.4176	0.0020874	0.0017334	1.4176	
13.1167	-0.4375	31.1587	4.97406	0.0265503	0.00213623	0.067749	11.4749	-4.14752	29.9886	0.5248	12.8761	-1.40117	0.00206299	0.00682373	1.40117	
13.2904	-0.34375	30.2019	4.97467	0.0256348	0.00213623	-0.015564	11.4914	-4.10756	29.9921	0.524862	12.8756	-1.38424	0.00206299	0.00539551	1.38424	
14.3328	-0.40625	30.3613	4.97528	0.0241089	0.00244141	-0.0167847	11.5085	-4.06669	29.9958	0.524927	12.8751	-1.3666	0.00209961	0.00400391	1.3666	
13.2035	-0.875	30.1806	4.97162	0.0259399	0.00366211	0.0198364	11.5265	-4.02504	29.9996	0.524993	12.8747	-1.34814	0.00212402	0.00344238	1.34814	
13.2904	-1.53125	30.3826	4.97284	0.0234985	0.00274658	-0.0534058	11.5451	-3.98291	30.0034	0.52506	12.8742	-1.32908	0.00203857	0.000683594	1.32908	
14.159	0.71875	30.7441	4.96735	0.0241089	0.00335693	-0.045166	11.5642	-3.94029	30.0074	0.525129	12.8736	-1.30944	0.00209961	-0.00118408	1.30944	
12.4652	-0.96875	30.2444	4.97131	0.0250244	0.00152588	-0.0253296	11.5839	-3.89687	30.0115	0.525201	12.8731	-1.28923	0.0020752	-0.00205078	1.28923	
11.1188	-1.8125	28.352	4.98047	0.0259399	0.00274658	0.0149536	11.6035	-3.85302	30.0154	0.525269	12.8726	-1.26914	0.00209961	-0.000390625	1.26914	
11.8137	-0.90625	30.2125	4.97894	0.0244141	0.00396729	0.00183105	11.6224	-3.80916	30.0187	0.525327	12.8722	-1.24979	0.00220947	0.00131836	1.24979	
11.9005	-1.21875	30.0318	4.97864	0.0256348	-0.000915527	0.0466919	11.6407	-3.76523	30.0217	0.52538	12.8718	-1.23112	0.00211182	0.00437012	1.23112	
20.0659	-0.46875	30.2657	4.98047	0.0241089	0.00152588	-0.0595093	11.6597	-3.72108	30.0247	0.525432	12.8714	-1.21167	0.00206299	0.00134277	1.21167	
12.7692	1.0625	30.0743	4.97681	0.0244141	0.00335693	0.0180054	11.6809	-3.67634	30.0276	0.525484	12.871	-1.19008	0.00218506	0.00263672	1.19008	
12.5086	-0.875	29.8829	4.97772	0.0271606	0.00396729	0.0238037	11.7032	-3.63075	30.0305	0.525534	12.8706	-1.16747	0.00223389	0.00463867	1.16747	
12.5955	-0.53125	29.9786	4.98047	0.0271606	0.00152588	-0.0088501	11.7252	-3.58469	30.0333	0.525582	12.8703	-1.1451	0.00220947	0.00288086	1.1451	
11.5096	-1	30.9035	4.98199	0.0241089	0.00213623	-0.00427246	11.7468	-3.53848	30.036	0.52563	12.8699	-1.12315	0.00220947	0.00213623	1.12315	
11.2925	-1.71875	29.7766	4.98718	0.0256348	0.00396729	0.0411987	11.7676	-3.49234	30.0388	0.52568	12.8695	-1.10194	0.00220947	0.00148926	1.10194	
12.8126	-0.15625	30.1912	4.98016	0.0259399	0.00579834	0.00976563	11.7877	-3.44635	30.0417	0.525729	12.8692	-1.08149	0.00235596	0.00214844	1.08149	
5.55938	0.375	30.3294	4.97589	0.0244141	0.00366211	-0.00305176	11.8063	-3.40009	30.0445	0.525778	12.8688	-1.06247	0.00244141	0.000866699	1.06247	
13.2035	-0.59375	30.4464	4.98199	0.0253296	0.00396729	0.0125122	11.8228	-3.35334	30.0473	0.525828	12.8684	-1.04566	0.00253906	0.00170898	1.04566	
12.7258	4.5625	30.17	4.98077	0.0244141	0.00152588	-0.0332642	11.8382	-3.30556	30.0503	0.525879	12.868	-1.02981	0.00263672	-0.000305176	1.02981	
12.4217	-0.34375	30.3294	4.98199	0.0253296	0.0012207	0.010376	11.8537	-3.25612	30.0532	0.525932	12.8677	-1.01393	0.00262451	7.32422E-005	1.01393	
12.5086	-0.875	29.8829	4.98505	0.0259399	0.00335693	0.0088501	11.8691	-3.20592	30.0562	0.525984	12.8673	-0.998169	0.00263672	0.0010498	0.998169	
12.4217	-0.28125	28.4477	4.98291	0.0250244	0.00213623	-0.0558472	11.8843	-3.15586	30.0588	0.526029	12.8669	-0.982627	0.0026001	-0.0012207	0.982627	
12.1611	-0.4375	30.3188	4.9826	0.0216675	0.00274658	-0.0491333	11.8993	-3.10588	30.0608	0.526064	12.8667	-0.967385	0.00269775	-0.00314941	0.967385	
16.9822	-0.375	30.2869	4.98505	0.0259399	0.00335693	0.0405884	11.9147	-3.05595	30.0626	0.526096	12.8664	-0.951742	0.00272217	-0.00216064	0.951742	
14.2025	0.78125	30.6059	4.97803	0.0241089	0.00152588	-0.00213623	11.9315	-3.00593	30.0646	0.52613	12.8662	-0.934654	0.00269775	-0.00495605	0.934654	
12.3349	-4.84375	30.2338	4.98505	0.0247192	0.00274658	-0.0192261	11.9493	-2.95636	30.0667	0.526167	12.8659	-0.916582	0.00272217	-0.00510254	0.916582	
10.945	-1.34375	29.7766	4.99481	0.0289917	0.00335693	0.0460815	11.9668	-2.90828	30.0688	0.526204	12.8656	-0.898816	0.00275879	-0.00258789	0.898816	
11.2056	-1.40625	30.372	4.9884	0.0265503	0.00366211	-0.0692749	11.9833	-2.86146	30.0708	0.526239	12.8654	-0.882051	0.00275879	-0.00615234	0.882051	
11.8137	-1.1875	31.988	4.99023	0.0234985	0.00213623	0.0125122	11.9988	-2.81533	30.0731	0.526279	12.8651	-0.866255	0.00273437	-0.00351563	0.866255	
12.9864	-1.15625	30.17	4.99146	0.0244141	0.00457764	0.0134277	12.0137	-2.76982	30.076	0.52633	12.8647	-0.850952	0.0027832	-0.00117188	0.850952	
9.90264	-1.0625	30.1274	4.99268	0.0271606	0.0012207	0.0100708	12.0281	-2.7249	30.0791	0.526384	12.8643	-0.836197	0.002771	0.000244141	0.836197	
0.17373	-1.09375	30.1912	4.97284	0.0247192	0.00274658	0.0231934	12.0396	-2.68053	30.0821	0.526438	12.8639	-0.824301	0.002771	0.00057373	0.824301	
12.1177	1.375	30.2869	4.99054	0.0247192	0.00366211	0.0564575	12.0467	-2.63634	30.0852	0.52649	12.8635	-0.816812	0.00275879	0.00275879	0.816812	
11.5531	-1.46875	30.0956	4.99176	0.0259399	0.00335693	0.0167847	12.0516	-2.59203	30.0882	0.526543	12.8631	-0.811471	0.00292969	0.0015625	0.811471	
10.9016	-1.84375	29.7341	4.99542	0.0265503	0.00335693	-0.0238037	12.0561	-2.54818	30.091	0.526593	12.8627	-0.806641	0.00300293	0.00299072	0.806641	
12.4652	-1	29.4577	4.99237	0.0259399	0.00366211	-0.0289917	12.06	-2.50524	30.0936	0.526637	12.8624	-0.802381	0.00301514	0.00111084	0.802381	
13.2469	0.09375	30.6059	4.98749	0.0234985	0.00366211	0.0344849	12.0639	-2.46283	30.0959	0.526678	12.8621	-0.798162	0.00300293	0.00153809	0.798162	
13.7681	-0.40625	30.4464	4.98749	0.0228882	0.00366211	-0.0509644	12.0684	-2.42055	30.0982	0.526718	12.8618	-0.793382	0.00308838	-0.000146484	0.793382	
20.9345	-0.78125	30.4251	4.98901	0.0262451	0.00457764	0.0476074	12.0748	-2.37849	30.1007	0.526762	12.8614	-0.786651	0.00318604	0.00192871	0.786651	
12.248	-1.28125	30.2976	4.98932	0.0247192	0.00244141	0.0222778	12.084	-2.33692	30.1033	0.526807	12.8611	-0.777093	0.003125	0.00117188	0.777093	
12.3783	-5	30.4677	4.99023	0.022583	0.0012207	-0.00396729	12.0944	-2.29665	30.1059	0.526853	12.8608	-0.766377	0.00294189	0.000622559	0.766377	
12.7258	-1.03125	30.3294	4.99481	0.0253296	0.00396729	0.0436401	12.1046	-2.25827	30.1087	0.526901	12.8604	-0.755802	0.0029541	0.00249023	0.755802	
12.2914	-0.71875	30.9567	4.99115	0.0244141	0.00274658	0.0143433	12.1147	-2.22104	30.1116	0.526952	12.86	-0.745299	0.00290527	0.00256348	0.745299	
13.2904	-0.28125	30.4677	4.99023	0.0238037	0.00152588	-0.00640869	12.1248	-2.18415	30.1147	0.527007	12.8596	-0.734785	0.00290527	0.0036377	0.734785	
13.4207	0.1875	30.5421	4.98657	0.0247192	0.00762939	-0.0131226	12.1352	-2.14737	30.118	0.527066	12.8592	-0.724009	0.00316162	0.00269775	0.724009	
7.20981	-0.5	30.2231	4.98657	0.0247192	0.00305176	0.0238037	12.145	-2.1106	30.1215	0.527126	12.8587	-0.713769	0.00314941	0.0032959	0.713769	
11.1622	-2.21875	30.0211	4.99573	0.0256348	0.00183105	-0.0170898	12.1529	-2.07428	30.1249	0.527185	12.8583	-0.705362	0.00313721	0.00484619	0.705362	
12.4217	3.625	30.1381	4.99237	0.0280762	0.00335693	0.032959	12.1596	-2.03814	30.1281	0.527242	12.8579	-0.698282	0.00316162	0.00812988	0.698282	
11.944	-1.375	30.2763	4.99298	0.0241089	0.00244141	0.00579834	12.1659	-2.00143	30.1313	0.527298	12.8574	-0.691556	0.003125	0.00673828	0.691556	
12.7258	-1.125	30.0956	4.98962	0.0222778	0.00213623	-0.00793457	12.172	-1.9648	30.1344	0.527352	12.857	-0.685002	0.00314941	0.00650635	0.685002	
12.6389	-0.84375	32.2644	4.99176	0.0274658	0.00457764	0.0262451	12.1782	-1.92892	30.1377	0.52741	12.8566	-0.678423	0.00322266	0.0083252	0.678423	
12.2046	-1.03125	30.2869	4.98962	0.0265503	-0.00518799	-0.0140381	12.1843	-1.8937	30.1416	0.527478	12.8561	-0.671753	0.00288086	0.00592041	0.671753	
14.2893	-1.09375	30.2338	4.99603	0.0250244	0.00152588	0.0210571	12.1907	-1.85915	30.1457	0.52755	12.8556	-0.664861	0.00279541	0.00953369	0.664861	
11.944	-1.59375	29.968	4.98108	0.0247192	0.00213623	-0.020752	12.1974	-1.8254	30.1497	0.52762	12.855	-0.657593	0.00279541	0.00820313	0.657593	
10.945	-4.28125	30.0424	4.99329	0.0265503	0.00152588	-0.027771	12.204	-1.79302	30.1535	0.527687	12.8545	-0.650534	0.00267334	0.00655518	0.650534	
12.3349	-0.90625	30.3932	4.98871	0.0247192	0.00244141	0.0161743	12.2099	-1.76238	30.1572	0.527751	12.854	-0.644136	0.00272217	0.00679932	0.644136	
13.9853	0.0625	30.9567	4.97955	0.0241089	0.00396729	0.0204468	12.2157	-1.73265	30.1609	0.527815	12.8536	-0.63782	0.002771	0.00668945	0.63782	
13.0732	-0.1875	29.5215	4.98199	0.0231934	0.00183105	0.0161743	12.2221	-1.70304	30.1646	0.527881	12.8531	-0.630999	0.00269775	0.00507813	0.630999	
13.2904	-0.71875	30.4145	4.98352	0.0250244	0.00579834	-0.0161743	12.2289	-1.67356	30.1682	0.527944	12.8526	-0.623719	0.00279541	0.00375977	0.623719	
11.5096	-0.78125	30.372	4.98199	0.0265503	0.00366211	0.0219727	12.2358	-1.64445	30.1717	0.528005	12.8521	-0.616342	0.00280762	0.00559082	0.616342	
15.0711	-1.21875	30.3294	4.9762	0.0234985	0.00213623	0.0186157	12.2429	-1.61587	30.1752	0.528066	12.8517	-0.608829	0.00274658	0.00749512	0.608829	
12.6823	-0.03125	30.4145	4.98535	0.022583	0.00366211	0.0189209	12.2505	-1.5878	30.1786	0.528126	12.8512	-0.600731	0.00274658	0.00687256	0.600731	
13.2904	-0.71875	30.2231	4.98505	0.0265503	0.00213623	-0.0567627	12.2586	-1.56003	30.1821	0.528187	12.8508	-0.592169	0.00268555	0.00664062	0.592169	
12.8126	0.125	30.3932	4.97864	0.0234985	0.00213623	-0.0241089	12.2669	-1.53247	30.1855	0.528246	12.8503	-0.583424	0.00258789	0.00377197	0.583424	
14.2459	0.21875	30.3294	4.97284	0.0222778	0.00213623	-0.0125122	12.2756	-1.50496	30.1889	0.528306	12.8499	-0.574337	0.00257568	0.00238037	0.574337	
12.8561	-0.78125	30.2019	4.98108	0.0280762	0.00152588	-0.0115967	12.2847	-1.47751	30.1922	0.528364	12.8494	-0.564772	0.00258789	0.0020752	0.564772	
12.0308	-1.875	29.9148	4.98322	0.0271606	-0.00610352	0.0100708	12.2939	-1.4506	30.1954	0.52842	12.849	-0.555101	0.00218506	0.000732422	0.555101	
14.4196	-1.09375	30.0956	4.98627	0.0238037	0.00152588	0.0393677	12.3032	-1.42461	30.1984	0.528473	12.8486	-0.545446	0.00213623	0.0017334	0.545446	
12.6823	-2	30.053	4.9826	0.0244141	0.00274658	-0.0524902	12.3128	-1.39958	30.2012	0.528521	12.8483	-0.535468	0.00218506	-0.000109863	0.535468	
12.3349	-0.59375	30.2231	4.97772	0.0271606	0.00213623	-0.0152588	12.3225	-1.37543	30.2039	0.528568	12.8479	-0.525401	0.00196533	-0.000195313	0.525401	
12.552	-0.78125	30.1806	4.97894	0.0256348	0.00213623	0.0506592	12.332	-1.3519	30.2064	0.528612	12.8476	-0.515593	0.00192871	0.000878906	0.515593	
13.2469	-0.90625	29.9892	4.98077	0.0241089	0.00274658	0.0524902	12.3414	-1.32882	30.2088	0.528654	12.8473	-0.505922	0.00196533	0.00366211	0.505922	
12.8126	-1.09375	29.2876	4.97772	0.0253296	0.00274658	0.0296021	12.3508	-1.30629	30.2109	0.52869	12.847	-0.496231	0.00194092	0.00352783	0.496231	
11.8137	-0.875	29.9999	4.97772	0.0265503	0.00854492	0.0140381	12.3601	-1.28436	30.2125	0.52872	12.8468	-0.486725	0.00218506	0.00385742	0.486725	
12.5955	-1.96875	29.7766	4.97711	0.0274658	0.00152588	0.0244141	12.369	-1.26314	30.2139	0.528743	12.8466	-0.47765	0.00216064	0.00515137	0.47765	
12.6823	-0.84375	30.2125	4.97681	0.0222778	0.000305176	-0.00274658	12.3776	-1.24275	30.215	0.528762	12.8465	-0.468882	0.00198975	0.0039917	0.468882	
14.0287	4.53125	30.6271	4.96857	0.0222778	0.00335693	0.0115967	12.3863	-1.22217	30.2161	0.528781	12.8463	-0.460036	0.00233154	0.00501709	0.460036	
14.159	-0.21875	30.3082	4.96948	0.0265503	0.00396729	-0.0228882	12.3955	-1.20031	30.2172	0.528802	12.8462	-0.45065	0.0024292	0.00325928	0.45065	
13.0732	-0.21875	30.0743	4.97345	0.0265503	0.00213623	-0.0302124	12.4053	-1.17787	30.2185	0.528823	12.846	-0.440677	0.0024292	0.00288086	0.440677	
13.1167	-0.125	30.8398	4.97223	0.0210571	0.00396729	-0.00152588	12.4154	-1.1556	30.2197	0.528844	12.8458	-0.430453	0.00252686	0.00393066	0.430453	
12.9864	-0.4375	30.17	4.97375	0.0256348	-0.000610352	0.00701904	12.4255	-1.13354	30.221	0.528868	12.8457	-0.420157	0.00240479	0.00356445	0.420157	
14.159	-0.59375	30.3082	4.97589	0.0265503	0.00213623	0.0115967	12.4358	-1.11178	30.2224	0.528893	12.8455	-0.409659	0.00233154	0.00321045	0.409659	
12.8995	0.125	30.3082	4.97223	0.0241089	0.00213623	-0.03479	12.4465	-1.09033	30.2238	0.528917	12.8453	-0.39883	0.00234375	0.00117188	0.39883	
13.7681	-1.875	30.3082	4.97192	0.0259399	0.00396729	-0.00579834	12.4574	-1.0693	30.2252	0.528941	12.8451	-0.387762	0.00227051	0.00158691	0.387762	
14.3328	0.53125	30.5633	4.96643	0.0231934	0.000915527	0.0106812	12.4686	-1.04882	30.2266	0.528966	12.8449	-0.376302	0.00216064	0.00113525	0.376302	
13.0298	-0.625	30.372	4.97131	0.0265503	0.00274658	0.00152588	12.4804	-1.02862	30.2281	0.528992	12.8447	-0.364357	0.00218506	0.00045166	0.364357	
11.944	-1.78125	29.1706	4.97925	0.0271606	0.00274658	-0.0115967	12.4921	-1.00888	30.2295	0.529017	12.8446	-0.352463	0.00214844	-0.000769043	0.352463	
12.5086	-1.09375	30.0743	4.97528	0.0265503	0.00274658	-0.032959	12.5033	-0.990022	30.2305	0.529034	12.8444	-0.341112	0.00217285	0.000183105	0.341112	
10.1632	-0.5625	30.0318	4.9762	0.0231934	0.00213623	0.0308228	12.5137	-0.971911	30.2313	0.529047	12.8443	-0.330637	0.00217285	0.00238037	0.330637	
18.372	-0.34375	30.1274	4.98505	0.0253296	0.00213623	-0.0131226	12.5239	-0.954227	30.2319	0.529058	12.8442	-0.320363	0.00217285	0.00235596	0.320363	
12.4217	1.125	30.0318	4.97314	0.0259399	0.00152588	0.00152588	12.5351	-0.936588	30.2324	0.529067	12.8442	-0.309028	0.00217285	0.00288086	0.309028	
12.5955	-0.5625	30.3613	4.97284	0.0250244	0.00274658	0.0460815	12.5469	-0.918776	30.2328	0.529074	12.8441	-0.297217	0.00252686	0.00432129	0.297217	
12.2914	-0.46875	29.9255	4.9762	0.0289917	0.00305176	0.0509644	12.5582	-0.901088	30.2332	0.52908	12.8441	-0.285867	0.00258789	0.00478516	0.285867	
12.1177	-0.875	29.8829	4.97681	0.0259399	0.00274658	0.0241089	12.569	-0.883827	30.2334	0.529084	12.844	-0.275076	0.00258789	0.00784912	0.275076	
10.8582	-1.59375	29.9148	4.97772	0.0241089	0.00335693	0.0161743	12.5789	-0.867212	30.2334	0.529084	12.844	-0.265137	0.00263672	0.00910645	0.265137	
13.5075	-0.71875	30.1168	4.97314	0.0247192	0.00640869	-0.0210571	12.588	-0.85138	30.2332	0.529081	12.8441	-0.25603	0.00280762	0.00623779	0.25603	
14.9843	0.28125	30.5527	4.97437	0.0265503	0.00213623	-0.0485229	12.5972	-0.836	30.233	0.529078	12.8441	-0.246856	0.0027832	0.00219727	0.246856	
13.2904	-1.125	30.4783	4.96796	0.0241089	0.00366211	-0.0158691	12.6071	-0.820837	30.233	0.529077	12.8441	-0.236998	0.00281982	0.000378418	0.236998	
13.4207	-0.21875	30.1168	4.97467	0.0259399	0.00457764	0.0408936	12.6173	-0.806034	30.233	0.529078	12.8441	-0.226763	0.00266113	0.00145264	0.226763	
12.8995	-0.5	30.3401	4.97437	0.0244141	0.00183105	-0.0265503	12.6276	-0.791567	30.2331	0.529079	12.8441	-0.216485	0.00267334	-0.000585937	0.216485	
12.5955	-0.59375	30.5846	4.97437	0.0259399	0.00274658	-0.0189209	12.6377	-0.777396	30.2332	0.529081	12.8441	-0.206355	0.002771	-0.00123291	0.206355	
12.552	-0.46875	30.2657	4.97925	0.0259399	0.00396729	0.0357056	12.6475	-0.763571	30.2334	0.529085	12.844	-0.196547	0.00279541	-0.000268555	0.196547	
12.4217	-0.40625	30.1593	4.97833	0.0241089	0.000915527	0.0088501	12.6568	-0.750056	30.2337	0.52909	12.844	-0.187148	0.00267334	0.00100098	0.187148	
10.641	-0.09375	30.372	4.97589	0.0222778	0.00274658	-0.0204468	12.6655	-0.736761	30.234	0.529095	12.844	-0.178478	0.00269775	0.0013916	0.178478	
13.855	0.78125	30.4783	4.98383	0.0250244	0.00274658	-0.0106812	12.6733	-0.723444	30.2344	0.529102	12.8439	-0.170584	0.00264893	0.00102539	0.170584	
12.3783	2.40625	30.1168	4.97833	0.0265503	0.00335693	0.0280762	12.6809	-0.709542	30.2348	0.529109	12.8439	-0.162949	0.00280762	0.00186768	0.162949	
10.9885	-1.59375	29.8829	4.98322	0.0253296	0.00213623	-0.0186157	12.6881	-0.695064	30.2351	0.529115	12.8438	-0.155762	0.00280762	0.00065918	0.155762	
11.8571	-1.125	29.968	4.98688	0.0271606	0.00274658	0.0241089	12.6942	-0.680957	30.2353	0.529118	12.8438	-0.149553	0.00283203	0.00301514	0.149553	
11.7268	-1.375	31.9773	4.98444	0.0247192	0.00213623	-0.0125122	12.6995	-0.667729	30.2356	0.529123	12.8438	-0.144217	0.00275879	0.00274658	0.144217	
12.248	-0.34375	30.0743	4.98383	0.0244141	0.000610352	-0.00457764	12.7041	-0.655203	30.2364	0.529136	12.8437	-0.139509	0.00274658	0.00213623	0.139509	
12.9864	-1	30.0956	4.98505	0.0241089	0.00213623	-0.0250244	12.7083	-0.643184	30.2373	0.529152	12.8435	-0.135188	0.00272217	0.00107422	0.135188	
11.9874	-1.21875	30.1593	4.97528	0.0259399	0.00396729	0.0112915	12.7123	-0.631737	30.2381	0.529167	12.8434	-0.131126	0.002771	0.00198975	0.131126	
12.0743	-3.15625	30.2231	4.9826	0.0247192	0.0012207	0.0421143	12.7158	-0.621322	30.2388	0.52918	12.8433	-0.127493	0.00270996	0.00499268	0.127493	
11.7268	-1.46875	29.968	4.98962	0.0280762	0.00274658	-0.03479	12.7188	-0.61228	30.2395	0.529191	12.8432	-0.124461	0.00273437	0.00236816	0.124461	
10.8147	-1.78125	29.9361	4.98932	0.0247192	0.00244141	0.00549316	12.7209	-0.604397	30.24	0.5292	12.8432	-0.122255	0.00274658	0.00311279	0.122255	
12.2046	-0.78125	28.4052	4.98566	0.0241089	0.00335693	0.0143433	12.7222	-0.597315	30.24	0.529201	12.8432	-0.121007	0.00281982	0.00362549	0.121007	
13.2035	-0.03125	30.4783	4.98077	0.0265503	0.00274658	-0.00579834	12.723	-0.590634	30.2395	0.529192	12.8432	-0.120262	0.00281982	0.00155029	0.120262	
12.248	-0.46875	30.4677	4.98199	0.0247192	0.00213623	-0.00488281	12.7238	-0.584023	30.2388	0.52918	12.8433	-0.11957	0.0027832	-0.000683594	0.11957	
21.282	-0.5625	30.2763	4.98108	0.0234985	0.00183105	-0.0662231	12.7258	-0.577518	30.2383	0.52917	12.8434	-0.117633	0.00274658	-0.00429688	0.117633	
12.4217	0.4375	30.1806	4.98932	0.0256348	0.00335693	0.0842285	12.7302	-0.571062	30.2378	0.529162	12.8435	-0.113224	0.00274658	-0.00157471	0.113224	
12.1177	-0.6875	30.2444	4.98932	0.0259399	0.00152588	0.00946045	12.7357	-0.564534	30.2373	0.529153	12.8435	-0.107835	0.00255127	-0.000354004	0.107835	
12.4217	-0.375	30.2231	4.98901	0.0247192	0.00152588	-0.00335693	12.7407	-0.558088	30.2369	0.529145	12.8436	-0.102925	0.00252686	0.00145264	0.102925	
12.6389	-0.90625	31.0949	4.99237	0.0253296	0.00366211	0.00854492	12.7452	-0.551884	30.2365	0.529139	12.8436	-0.0983805	0.00252686	0.0024292	0.0983805	
13.2904	0.28125	30.3826	4.98749	0.0241089	0.00274658	0.0186157	12.7497	-0.54585	30.2365	0.529139	12.8436	-0.0939555	0.00245361	0.00153809	0.0939555	
14.5934	0.28125	30.6484	4.98566	0.0241089	0.00152588	-0.0357056	12.7544	-0.539698	30.2367	0.529143	12.8436	-0.0892166	0.00244141	0.00117188	0.0892166	
5.38564	-1.34375	30.2657	4.99237	0.0262451	0.00305176	-0.00366211	12.7584	-0.533504	30.2371	0.529149	12.8436	-0.0851123	0.00245361	0.00178223	0.0851123	
10.7279	-2.46875	29.9892	4.99512	0.0259399	0.00152588	0.0247192	12.76	-0.527951	30.2375	0.529156	12.8435	-0.083465	0.00235596	0.00134277	0.083465	
11.9005	4.4375	30.2019	4.99512	0.0247192	0.00244141	-0.0234985	12.7597	-0.52255	30.2378	0.529161	12.8435	-0.0837935	0.00241699	4.88281E-005	0.0837935	
11.9005	-1.5	30.2763	4.99481	0.0262451	0.0012207	0.0231934	12.7586	-0.516252	30.238	0.529165	12.8434	-0.0848314	0.00235596	0.00179443	0.0848314	
12.2046	-1.21875	29.7128	4.99054	0.0247192	0.00244141	-0.0180054	12.7571	-0.50982	30.2382	0.529168	12.8434	-0.0863282	0.00234375	0.00150146	0.0863282	
12.6389	-0.875	27.5334	4.99481	0.0234985	0.00335693	0	12.7553	-0.504043	30.2377	0.52916	12.8435	-0.0881713	0.00234375	0.000378418	0.0881713	
11.9005	-1.40625	30.2444	4.99146	0.027771	0.000915527	-0.043335	12.7533	-0.498834	30.2364	0.529137	12.8436	-0.0903251	0.00229492	-0.000610352	0.0903251	
16.2004	-1.21875	30.1912	4.99237	0.027771	0.00244141	0.0680542	12.7517	-0.494258	30.2347	0.529107	12.8439	-0.0922069	0.00228271	0.00114746	0.0922069	
11.7268	-1	30.1062	4.99359	0.0253296	0.00213623	-0.0180054	12.7508	-0.490287	30.233	0.529078	12.8441	-0.0932481	0.00228271	0.000927734	0.0932481	
10.945	-7.46875	29.851	4.99817	0.0259399	0.00213623	-0.0741577	12.75	-0.487808	30.2313	0.529047	12.8443	-0.0943295	0.00234375	-0.00185547	0.0943295	
12.5086	-1.1875	30.2869	4.9939	0.0259399	0.00305176	0.0454712	12.7484	-0.48777	30.2295	0.529016	12.8446	-0.0961463	0.00238037	0.000964355	0.0961463	
13.7247	0.1875	30.7015	4.98352	0.0241089	0.00396729	0.022583	12.7467	-0.488929	30.2278	0.528986	12.8448	-0.0980981	0.00238037	0.00141602	0.0980981	
13.1601	-0.71875	31.7222	4.98474	0.0247192	0.00183105	0.0186157	12.7453	-0.489982	30.2265	0.528964	12.8449	-0.0996001	0.00240479	0.000476074	0.0996001	
13.0732	-0.96875	30.3932	4.99176	0.0247192	0.000915527	-0.0125122	12.7444	-0.491037	30.2259	0.528953	12.845	-0.100644	0.00233154	0.00136719	0.100644	
11.1188	-0.84375	30.3294	4.99329	0.0256348	0.00366211	0.0314331	12.7434	-0.492295	30.2256	0.528947	12.8451	-0.101698	0.00238037	0.00240479	0.101698	
3.77864	-1.375	30.2869	4.98016	0.0265503	0.00152588	-0.0534058	12.7406	-0.493828	30.2253	0.528943	12.8451	-0.10455	0.00230713	-0.000305176	0.10455	
12.8995	0.65625	30.3932	4.98932	0.0222778	0.00274658	0.0671387	12.7348	-0.495457	30.2251	0.52894	12.8451	-0.110302	0.00230713	0.0026123	0.110302	
12.8126	-0.34375	30.372	4.98901	0.022583	0.00274658	0.0167847	12.728	-0.496785	30.2251	0.528939	12.8451	-0.117168	0.00233154	0.003479	0.117168	
13.4207	-0.65625	30.2657	4.98444	0.0247192	0.00366211	0.0125122	12.7215	-0.497865	30.2251	0.528939	12.8451	-0.123624	0.00240479	0.00662842	0.123624	
14.0722	0.15625	29.649	4.98322	0.0253296	0.00213623	0.0247192	12.7157	-0.49883	30.225	0.528938	12.8451	-0.129421	0.00235596	0.00424805	0.129421	
12.2914	-1	30.3401	4.98871	0.0216675	0.00213623	-0.050354	12.7106	-0.499661	30.2248	0.528934	12.8452	-0.134571	0.00238037	0.00185547	0.134571	
13.0732	-2.125	29.9361	4.99023	0.0256348	0.00152588	-0.00946045	12.7058	-0.500769	30.2245	0.528929	12.8452	-0.139417	0.00238037	0.00161133	0.139417	
21.1951	-1.34375	30.0743	4.99634	0.0265503	0.00274658	0.0564575	12.7025	-0.50255	30.2241	0.528922	12.8453	-0.14274	0.00234375	0.00352783	0.14274	
12.2046	-1.09375	30.1381	4.9881	0.0247192	0.00213623	0.00976563	12.702	-0.504873	30.2236	0.528914	12.8453	-0.143344	0.00231934	0.00317383	0.143344	
12.6389	-9.375	30.2019	4.98444	0.0259399	0.00366211	-0.00549316	12.7026	-0.508805	30.2231	0.528905	12.8454	-0.142781	0.00240479	0.00438232	0.142781	
12.3349	-1.03125	30.2231	4.98566	0.0234985	0.000305176	0.0296021	12.7031	-0.515522	30.2226	0.528896	12.8455	-0.142394	0.00229492	0.00571289	0.142394	
12.5955	-0.5625	30.8504	4.98688	0.0250244	0.00152588	-0.0454712	12.7034	-0.523546	30.2222	0.528889	12.8455	-0.14215	0.00229492	0.00290527	0.14215	
12.5955	-1.28125	30.2444	4.98413	0.027771	0.0012207	0.0186157	12.7035	-0.531498	30.222	0.528885	12.8455	-0.141995	0.00224609	0.00458984	0.141995	
11.5096	-1.4375	30.0743	4.98718	0.0256348	0.00518799	-0.0280762	12.7035	-0.539551	30.2219	0.528884	12.8456	-0.14207	0.00240479	0.00253906	0.14207	
6.81892	-1.34375	29.9892	4.98444	0.0234985	0.00274658	0.0250244	12.7021	-0.547841	30.2217	0.52888	12.8456	-0.143454	0.00241699	0.00426025	0.143454	
13.0732	-0.5	30.1593	4.97925	0.0265503	0.00335693	-0.00976563	12.6989	-0.556219	30.2215	0.528876	12.8456	-0.146755	0.00241699	0.00386963	0.146755	
13.8116	5.25	30.5102	4.97314	0.0256348	0.0012207	0.0143433	12.6951	-0.563508	30.2212	0.528871	12.8456	-0.150566	0.0024292	0.00617676	0.150566	
13.4641	0.03125	30.3932	4.97833	0.0234985	0.00213623	-0.0140381	12.692	-0.568637	30.221	0.528868	12.8457	-0.153706	0.00241699	0.00289307	0.153706	
13.3772	-0.625	30.0318	4.97711	0.0244141	0.00274658	-0.0134277	12.6895	-0.572506	30.2209	0.528867	12.8457	-0.156207	0.00244141	0.00307617	0.156207	
13.0298	-0.59375	31.8816	4.97711	0.0265503	0.00274658	0.0344849	12.6875	-0.576167	30.2211	0.528869	12.8457	-0.158205	0.00246582	0.00742187	0.158205	
12.8995	-0.75	30.2019	4.98077	0.0247192	-0.00366211	0.0204468	12.6858	-0.579739	30.2217	0.52888	12.8456	-0.159824	0.00219727	0.0064209	0.159824	
15.766	-0.71875	30.2231	4.97864	0.0241089	0.00213623	0.00274658	12.6847	-0.583263	30.2226	0.528895	12.8455	-0.160755	0.00212402	0.00562744	0.160755	
12.9864	-0.59375	30.2763	4.98688	0.0222778	0.00274658	-0.0473022	12.6847	-0.586734	30.2234	0.528909	12.8454	-0.160617	0.00216064	0.00299072	0.160617	
13.5944	-1.34375	30.4889	4.9704	0.0244141	0.00213623	-0.0482178	12.6855	-0.590224	30.2242	0.528924	12.8452	-0.159763	0.00220947	0.0015625	0.159763	
14.6368	0.625	30.457	4.96979	0.0259399	0.00213623	-0.00946045	12.6868	-0.593637	30.2252	0.528941	12.8451	-0.158291	0.00214844	-7.32422E-005	0.158291	
13.0732	-0.84375	30.3082	4.97101	0.0241089	0.00274658	-0.0265503	12.6889	-0.596708	30.2262	0.528959	12.845	-0.156049	0.00219727	0.00100098	0.156049	
11.5531	-1.34375	29.3726	4.97772	0.0228882	0.00152588	0.00915527	12.6912	-0.599675	30.2272	0.528976	12.8449	-0.153648	0.00214844	-0.00131836	0.153648	
12.248	-1.125	30.053	4.97955	0.0271606	0.00579834	0.00152588	12.693	-0.602889	30.2278	0.528987	12.8448	-0.151731	0.00227051	-0.00192871	0.151731	
11.7268	-0.875	30.0211	4.97528	0.0253296	0.00244141	0.0271606	12.6944	-0.60631	30.2282	0.528993	12.8447	-0.150375	0.00222168	-0.00134277	0.150375	
13.551	-0.84375	30.3082	4.96307	0.0222778	0.00213623	0.0198364	12.6954	-0.609812	30.2285	0.528998	12.8447	-0.149312	0.00222168	-0.00153809	0.149312	
12.8561	1.125	30.053	4.97467	0.0283813	0.00274658	-0.0393677	12.6965	-0.613036	30.2287	0.529003	12.8447	-0.148152	0.00224609	-0.00109863	0.148152	
12.9864	-0.84375	30.0424	4.97681	0.0259399	0.0012207	-0.0231934	12.6978	-0.61568	30.2289	0.529006	12.8446	-0.146814	0.00223389	-0.00164795	0.146814	
12.4217	-0.78125	30.0318	4.97406	0.0238037	0.00274658	0.0491333	12.6992	-0.618058	30.2289	0.529007	12.8446	-0.145467	0.00223389	-0.00194092	0.145467	
11.7702	-0.96875	30.5421	4.97803	0.0262451	0.00335693	0.0198364	12.7003	-0.620493	30.2289	0.529007	12.8446	-0.144358	0.00228271	-0.00153809	0.144358	
11.2056	-1.78125	29.6916	4.97833	0.0280762	0.0012207	0.0125122	12.7008	-0.623156	30.2289	0.529006	12.8446	-0.143853	0.00218506	-0.000817871	0.143853	
13.1167	-0.0625	30.2444	4.97406	0.0247192	-0.00457764	0.0393677	12.7007	-0.626052	30.2288	0.529004	12.8446	-0.143925	0.00198975	-0.000427246	0.143925	
8.20876	0.625	30.4677	4.97345	0.0219727	0.00152588	-0.0460815	12.6999	-0.628657	30.2286	0.529001	12.8447	-0.1448	0.00198975	-0.00045166	0.1448	
13.8984	-0.3125	30.2869	4.96887	0.0234985	0.00152588	-0.0283813	12.6979	-0.630645	30.2286	0.529	12.8447	-0.146777	0.00200195	-0.00233154	0.146777	
13.5075	0.03125	30.3082	4.97223	0.0265503	0.00213623	-0.0448608	12.6958	-0.632167	30.2286	0.529	12.8447	-0.148873	0.00187988	-0.00300293	0.148873	
13.0732	-0.71875	30.1806	4.97253	0.0280762	0.00396729	-0.00335693	12.6943	-0.633395	30.2286	0.529	12.8447	-0.150396	0.00192871	-0.00413818	0.150396	
13.0298	-0.59375	30.1062	4.97192	0.0222778	0.00213623	0.0405884	12.6931	-0.634496	30.2286	0.529	12.8447	-0.151573	0.00187988	-0.00212402	0.151573	
13.5075	-0.3125	29.8085	4.97406	0.0222778	0.00366211	-0.0299072	12.6923	-0.63551	30.2285	0.528998	12.8447	-0.152433	0.00197754	-0.00389404	0.152433	
12.6389	-0.375	30.2231	4.97345	0.0259399	0.00823975	0.0320435	12.6917	-0.636341	30.2282	0.528994	12.8447	-0.152986	0.00222168	-0.00205078	0.152986	
13.551	0.125	30.4039	4.96704	0.0247192	0.0012207	0.020752	12.6915	-0.636894	30.2279	0.528989	12.8448	-0.153281	0.00216064	-0.000683594	0.153281	
14.1156	0.46875	30.5527	4.96796	0.0210571	0.00213623	0.00701904	12.6917	-0.636979	30.2277	0.528986	12.8448	-0.153073	0.00213623	-0.00178223	0.153073	
12.5955	-1.84375	30.1168	4.97467	0.0265503	0.00213623	-0.0357056	12.6925	-0.636787	30.2277	0.528985	12.8448	-0.152297	0.00236816	-0.00402832	0.152297	
11.3359	-1.34375	29.8829	4.98199	0.0271606	0.00274658	0.0656128	12.6932	-0.636914	30.2276	0.528983	12.8448	-0.151573	0.00239258	-0.00151367	0.151573	
11.944	-1.0625	29.6916	4.97833	0.0265503	0.000610352	-0.0326538	12.6934	-0.637509	30.2273	0.528978	12.8448	-0.151455	0.00230713	-0.000927734	0.151455	
12.5086	-0.625	31.8497	4.98108	0.0262451	0.00396729	-0.0265503	12.6931	-0.638323	30.227	0.528973	12.8449	-0.151808	0.00238037	-6.10352E-005	0.151808	
12.3349	-0.375	30.1912	4.97681	0.0247192	-0.0012207	-0.0137329	12.6925	-0.639129	30.2272	0.528976	12.8449	-0.152323	0.00224609	-0.000231934	0.152323	
14.2459	-0.15625	30.1168	4.98016	0.0253296	0.00335693	0.0390625	12.6921	-0.639749	30.2276	0.528983	12.8448	-0.152689	0.00227051	0.00239258	0.152689	
5.42908	-1.03125	30.0956	4.97528	0.0256348	0.00274658	0.017395	12.691	-0.640216	30.2279	0.528989	12.8448	-0.153751	0.00231934	0.00272217	0.153751	
11.944	-2.875	30.0424	4.98077	0.0265503	0.00152588	-0.0436401	12.6878	-0.64106	30.2281	0.528992	12.8447	-0.156915	0.00214844	0.000915527	0.156915	
11.249	-1.21875	29.851	4.98047	0.0241089	0.00213623	-0.00579834	12.6832	-0.642717	30.2282	0.528994	12.8447	-0.161566	0.00213623	-0.000402832	0.161566	
11.2056	-1.78125	29.8191	4.98627	0.0283813	0.00396729	0.0540161	12.6779	-0.645019	30.2281	0.528991	12.8447	-0.166872	0.00220947	0.000964355	0.166872	
12.2046	-0.84375	29.7022	4.98108	0.0253296	0.00152588	-0.0231934	12.672	-0.647713	30.2277	0.528984	12.8448	-0.17278	0.00216064	0.00161133	0.17278	
13.9419	0.28125	30.5633	4.97345	0.0241089	0.00396729	-0.0704956	12.6662	-0.650405	30.2271	0.528974	12.8449	-0.178679	0.00227051	-0.000280762	0.178679	
12.6389	-0.40625	30.2869	4.98383	0.0268555	0.00366211	-0.0393677	12.6609	-0.652706	30.2266	0.528965	12.8449	-0.184048	0.00230713	-0.0038208	0.184048	
18.372	-0.40625	30.2019	4.9826	0.0256348	0.00213623	0.0222778	12.6568	-0.654667	30.2262	0.528958	12.845	-0.188143	0.0022583	-0.00372314	0.188143	
12.3349	1.28125	30.3294	4.98322	0.0247192	0.00396729	0.0088501	12.6547	-0.656143	30.2258	0.528951	12.845	-0.190372	0.00236816	-0.00386963	0.190372	
12.5955	-1.78125	30.1381	4.99054	0.0244141	0.00274658	-0.0161743	12.6533	-0.657103	30.2254	0.528945	12.8451	-0.191743	0.00266113	-0.00609131	0.191743	
12.6389	-0.78125	30.0849	4.9881	0.0265503	0.00274658	-0.0183105	12.652	-0.658097	30.225	0.528938	12.8451	-0.193139	0.00270996	-0.00498047	0.193139	
12.3783	-0.125	30.2657	4.98383	0.0231934	0.00457764	0.020752	12.6506	-0.659185	30.2246	0.52893	12.8452	-0.194549	0.00283203	-0.00301514	0.194549	
13.5944	-0.28125	30.4145	4.98749	0.0244141	0.00213623	0.00701904	12.6494	-0.66003	30.2242	0.528924	12.8452	-0.195847	0.00283203	-0.000939941	0.195847	
14.3328	0.46875	30.5314	4.9826	0.0231934	0.00762939	0.0363159	12.6487	-0.66047	30.2239	0.528919	12.8453	-0.196572	0.00297852	0.000646973	0.196572	
13.8116	-0.625	30.2763	4.98749	0.0265503	0.00488281	0.0311279	12.6489	-0.66048	30.2238	0.528917	12.8453	-0.196405	0.00308838	0.000268555	0.196405	
10.945	-2.71875	29.8404	4.99664	0.027771	0.00213623	0.00854492	12.6494	-0.660623	30.2237	0.528915	12.8453	-0.195885	0.00302734	0.00180664	0.195885	
11.5531	-0.8125	30.1062	4.99512	0.0250244	0.00213623	0.0308228	12.6494	-0.661417	30.2235	0.528911	12.8453	-0.195919	0.0027832	0.00175781	0.195919	
11.5965	-1.0625	30.2763	4.99237	0.0231934	0.00274658	0.00946045	12.6487	-0.662612	30.2232	0.528905	12.8454	-0.196732	0.00284424	0.00130615	0.196732	
12.1177	-1.34375	30.0424	4.99207	0.0253296	0.00274658	0.00701904	12.6473	-0.664018	30.2228	0.5289	12.8454	-0.198098	0.00286865	0.00130615	0.198098	
12.4217	-0.9375	30.4251	4.99084	0.0259399	0.00244141	0.0296021	12.6457	-0.66569	30.2225	0.528894	12.8455	-0.199782	0.00288086	0.00391846	0.199782	
11.2925	-0.90625	30.2763	4.99176	0.0247192	0.0012207	-0.0418091	12.6437	-0.667531	30.2222	0.528889	12.8455	-0.201762	0.00281982	-0.000378418	0.201762	
12.8126	-1.09375	30.2019	4.99359	0.0274658	0.00274658	-0.00213623	12.6414	-0.669489	30.222	0.528885	12.8455	-0.204095	0.00290527	0.000842285	0.204095	
11.4228	-0.53125	30.0318	5.00214	0.0256348	0.00152588	-0.0189209	12.6389	-0.671527	30.2217	0.528881	12.8456	-0.206695	0.00280762	0.00114746	0.206695	
11.0319	1.46875	29.9892	4.99878	0.0241089	0.00366211	0.045166	12.6358	-0.673182	30.2214	0.528875	12.8456	-0.209817	0.00300293	0.00350342	0.209817	
12.4652	-0.875	30.2231	4.99237	0.0244141	0.00305176	0.0100708	12.6321	-0.674125	30.221	0.528867	12.8457	-0.213556	0.00299072	0.00234375	0.213556	
13.7681	-0.25	30.4677	4.98322	0.0253296	0.00152588	-0.020752	12.6284	-0.674699	30.2206	0.52886	12.8457	-0.217288	0.00294189	0.000817871	0.217288	
12.9429	-0.375	31.7434	4.98993	0.0234985	0.00274658	0.00610352	12.6253	-0.675105	30.2205	0.528859	12.8457	-0.22047	0.00299072	0.00280762	0.22047	
13.4641	-0.4375	30.372	4.99054	0.0268555	0.00396729	0.0167847	12.6226	-0.675302	30.221	0.528867	12.8457	-0.223066	0.00306396	0.00371094	0.223066	
13.7247	-1	30.3082	4.99298	0.0238037	0.00152588	-0.00152588	12.6205	-0.675421	30.2217	0.52888	12.8456	-0.22505	0.00296631	0.00148926	0.22505	
12.3783	-1.28125	30.3294	4.98566	0.0247192	0.00335693	0.0338745	12.619	-0.675694	30.2225	0.528893	12.8455	-0.22652	0.00303955	0.00377197	0.22652	
12.8561	-1.53125	30.1912	4.99054	0.0265503	0.00213623	-0.0662231	12.6176	-0.676329	30.2233	0.528907	12.8454	-0.2278	0.00296631	0.00394287	0.2278	
12.7692	-0.5	30.3826	4.99054	0.0250244	0.00366211	0.027771	12.6163	-0.677273	30.2241	0.528921	12.8453	-0.22897	0.00296631	0.00662842	0.22897	
13.551	-0.5	30.7015	4.98505	0.0216675	0.00366211	0.0332642	12.6153	-0.678234	30.2249	0.528937	12.8452	-0.229855	0.00302734	0.00706787	0.229855	
14.2025	-0.09375	29.7979	4.98596	0.0244141	0.00335693	0.00610352	12.6149	-0.678988	30.2259	0.528953	12.845	-0.230134	0.00300293	0.00695801	0.230134	
11.9874	-1.125	30.3082	4.98688	0.0262451	0.0012207	-0.00976563	12.615	-0.679576	30.2268	0.528969	12.8449	-0.229869	0.00294189	0.00721436	0.229869	
10.2501	-1.78125	30.053	4.9942	0.0259399	0.000915527	-0.0152588	12.6149	-0.680361	30.2276	0.528983	12.8448	-0.229937	0.00286865	0.00733643	0.229937	
18.068	-1.375	30.0211	4.9939	0.0268555	0.00335693	0.0418091	12.6147	-0.681637	30.2283	0.528994	12.8447	-0.229998	0.00281982	0.00817871	0.229998	
11.6399	-0.28125	30.1912	4.99115	0.0241089	0.00152588	0.0125122	12.6157	-0.683192	30.2288	0.529004	12.8446	-0.228896	0.00279541	0.00839844	0.228896	
12.8995	-1.28125	30.2444	4.9881	0.0241089	0.00274658	0.0372314	12.6173	-0.684769	30.2293	0.529013	12.8446	-0.22725	0.0026001	0.00843506	0.22725	
12.8126	-0.78125	30.2869	4.9881	0.0265503	0.00213623	0.0137329	12.6188	-0.686427	30.2298	0.529022	12.8445	-0.225695	0.00249023	0.00773926	0.225695	
12.6823	-1.0625	31.0736	4.9884	0.0247192	0.00274658	-0.00335693	12.6204	-0.688208	30.2304	0.529033	12.8444	-0.22406	0.00251465	0.00726318	0.22406	
12.9864	-1	30.3401	4.98932	0.0244141	0.00274658	0.0439453	12.622	-0.690106	30.2313	0.529048	12.8443	-0.222339	0.00253906	0.00778809	0.222339	
12.4652	-1.34375	30.0105	4.98657	0.0280762	0.00823975	-0.0012207	12.6236	-0.692192	30.2323	0.529065	12.8442	-0.220563	0.00275879	0.00736084	0.220563	
3.95237	-1.84375	29.8829	4.99176	0.0259399	0.00366211	0.0753784	12.6239	-0.694635	30.2332	0.52908	12.8441	-0.220201	0.00279541	0.0100952	0.220201	
12.6823	-1.59375	30.2869	4.98383	0.0234985	0.00335693	-0.0119019	12.6214	-0.697588	30.2338	0.529092	12.844	-0.222576	0.00283203	0.00843506	0.222576	
14.2025	3.90625	30.6271	4.97772	0.0265503	0.00274658	-0.0558472	12.6179	-0.700181	30.2345	0.529104	12.8439	-0.225946	0.00289307	0.00787354	0.225946	
13.4641	-0.34375	30.4889	4.97681	0.0259399	0.00213623	-0.0332642	12.6152	-0.701337	30.2354	0.529119	12.8438	-0.228542	0.00286865	0.00662842	0.228542	
13.4641	-0.34375	29.7128	4.98199	0.0244141	0.00213623	0.00396729	12.6133	-0.701571	30.2362	0.529134	12.8437	-0.230399	0.00289307	0.00754395	0.230399	
12.9429	-0.53125	30.0105	4.97955	0.0259399	0.00152588	-0.0158691	12.6118	-0.701604	30.2369	0.529145	12.8436	-0.231765	0.00280762	0.00510254	0.231765	
12.6823	-0.84375	30.2019	4.98169	0.0256348	0.000305176	0.0326538	12.6107	-0.701549	30.2374	0.529154	12.8435	-0.232858	0.00269775	0.00600586	0.232858	
16.8519	-0.5625	30.3932	4.98077	0.0250244	0.000915527	-0.0112915	12.6103	-0.701493	30.2378	0.529162	12.8435	-0.233184	0.00267334	0.00638428	0.233184	
13.3338	0.03125	30.2763	4.97925	0.0231934	0.00335693	0.0311279	12.6113	-0.701303	30.2383	0.52917	12.8434	-0.232052	0.00269775	0.00738525	0.232052	
13.6813	-4.46875	30.4358	4.9765	0.0241089	0.0012207	-0.108948	12.6134	-0.701456	30.2388	0.52918	12.8433	-0.229903	0.00258789	0.00235596	0.229903	
14.7671	0.53125	30.6271	4.97375	0.0247192	0.00213623	-0.0292969	12.6162	-0.702468	30.2395	0.529191	12.8432	-0.227035	0.0026123	0.00124512	0.227035	
13.1167	-0.96875	30.3507	4.97589	0.0259399	0.00152588	-0.0332642	12.6198	-0.703687	30.2403	0.529205	12.8431	-0.223335	0.00253906	-0.00144043	0.223335	
11.5096	-1.46875	31.1268	4.98199	0.0241089	0.0012207	0.0149536	12.6236	-0.704873	30.2413	0.529222	12.843	-0.219419	0.00250244	0.00180664	0.219419	
12.3783	-0.78125	30.17	4.98108	0.0241089	0.0012207	-0.0131226	12.6269	-0.706308	30.2425	0.529244	12.8428	-0.215909	0.00240479	0.000170898	0.215909	
10.7279	-0.71875	29.8617	4.97864	0.0262451	0.00213623	-0.0180054	12.6296	-0.707835	30.2437	0.529265	12.8427	-0.21306	0.00234375	-0.00187988	0.21306	
4.03923	-1.125	30.255	4.97437	0.0253296	0.00213623	0.0314331	12.6303	-0.709389	30.2448	0.529284	12.8425	-0.21229	0.00229492	-0.000866699	0.21229	
12.7692	1.3125	30.2019	4.97467	0.0210571	0.00213623	0.0802612	12.6279	-0.710706	30.2458	0.529301	12.8424	-0.214494	0.00233154	0.00273437	0.214494	
12.9429	-0.84375	30.0956	4.97742	0.0253296	0.00274658	0.0100708	12.6244	-0.711433	30.2467	0.529317	12.8423	-0.217865	0.00240479	0.00374756	0.217865	
12.8561	-0.84375	29.9042	4.97437	0.0259399	0.0012207	-0.0534058	12.6212	-0.711883	30.2475	0.529331	12.8422	-0.220975	0.00231934	-6.10352E-005	0.220975	
11.9874	-1.84375	29.2238	4.97803	0.0271606	0.00274658	-0.027771	12.6181	-0.712554	30.2479	0.529339	12.8421	-0.223991	0.00236816	-0.00167236	0.223991	
11.249	-1.625	29.9148	4.97772	0.0216675	0.00396729	0.0241089	12.6148	-0.713714	30.2479	0.529339	12.8421	-0.227328	0.00241699	-0.00219727	0.227328	
14.5499	-0.71875	30.1593	4.9707	0.0241089	0.00274658	0.0363159	12.6114	-0.715293	30.2477	0.529334	12.8422	-0.230805	0.00244141	-0.00129395	0.230805	
16.1135	0.28125	30.3613	4.96979	0.0250244	0.00457764	-0.0350952	12.609	-0.716804	30.2474	0.529329	12.8422	-0.233236	0.00251465	-0.00256348	0.233236	
13.5075	-1.3125	30.3082	4.96735	0.0259399	0.00396729	0.0143433	12.6082	-0.718046	30.2471	0.529324	12.8422	-0.234049	0.00256348	-0.00374756	0.234049	
12.5086	-9.28125	30.1912	4.96857	0.0253296	0	-0.0518799	12.6082	-0.720602	30.2469	0.52932	12.8423	-0.234023	0.00223389	-0.00577393	0.234023	
12.7692	-0.46875	30.17	4.97284	0.0253296	0.00305176	0.0289917	12.6084	-0.725778	30.2466	0.529316	12.8423	-0.233867	0.00220947	-0.00762939	0.233867	
12.6823	-0.34375	30.5846	4.97192	0.0259399	0.00183105	-0.0186157	12.6087	-0.731961	30.2464	0.529312	12.8423	-0.233668	0.00214844	-0.00789795	0.233668	
13.0298	-0.21875	30.2019	4.97375	0.0256348	0.000915527	0.0167847	12.609	-0.737688	30.2463	0.52931	12.8423	-0.233352	0.0020752	-0.00499268	0.233352	
12.248	-0.28125	30.1381	4.97101	0.0247192	0.00396729	0.0308228	12.6094	-0.742922	30.2462	0.529308	12.8424	-0.232958	0.00214844	-0.0024292	0.232958	
8.64309	-0.5	30.372	4.9649	0.0231934	0.00152588	-0.0534058	12.6091	-0.74771	30.2461	0.529306	12.8424	-0.233242	0.00212402	-0.00472412	0.233242	
14.159	0.90625	30.4783	4.96552	0.0241089	0.00152588	-0.00366211	12.6078	-0.751926	30.246	0.529305	12.8424	-0.234555	0.00212402	-0.00423584	0.234555	
12.8561	2.40625	30.0318	4.97284	0.0265503	0.00305176	0.0323486	12.6065	-0.754951	30.246	0.529305	12.8424	-0.23591	0.00223389	-0.00424805	0.23591	
11.6834	-1.5625	29.8191	4.97467	0.0259399	0.00213623	0.0201416	12.6053	-0.756756	30.2459	0.529304	12.8424	-0.237055	0.00228271	-0.00299072	0.237055	
12.3349	-1.1875	29.7872	4.98016	0.0274658	0.00366211	-0.0411987	12.604	-0.758325	30.2456	0.529298	12.8424	-0.238481	0.00229492	-0.00588379	0.238481	
12.2914	-0.4375	32.0943	4.97284	0.0244141	0.00152588	-0.0314331	12.6023	-0.760047	30.2454	0.529294	12.8425	-0.240121	0.00230713	-0.0027832	0.240121	
13.1167	-0.625	30.0849	4.9881	0.0265503	0.00305176	-0.00213623	12.6007	-0.761655	30.2456	0.529298	12.8424	-0.241699	0.00234375	-0.00169678	0.241699	
15.2014	-0.46875	30.1487	4.97528	0.0231934	0.000610352	-0.00762939	12.5997	-0.763068	30.2461	0.529306	12.8424	-0.242678	0.00230713	-0.000671387	0.242678	
12.6389	-0.78125	30.1274	4.96246	0.027771	0.00396729	-0.0088501	12.5996	-0.764322	30.2465	0.529313	12.8423	-0.242738	0.00241699	-0.00162354	0.242738	
12.4217	-3.53125	30.0211	4.97925	0.0280762	0.00213623	-0.0393677	12.5999	-0.76592	30.2467	0.529318	12.8423	-0.242419	0.00245361	-0.00267334	0.242419	
11.6399	-0.9375	29.9148	4.98077	0.0247192	0.00305176	0.0305176	12.5999	-0.76835	30.2469	0.52932	12.8423	-0.242328	0.00249023	-0.000732422	0.242328	
11.2056	-1.3125	29.968	4.98383	0.0234985	0.00183105	0.00396729	12.5995	-0.771261	30.2468	0.529319	12.8423	-0.242806	0.00247803	-0.00183105	0.242806	
13.1167	-0.71875	28.4052	4.9826	0.0253296	0.00335693	0.0112915	12.5985	-0.774255	30.2463	0.529311	12.8423	-0.243824	0.00252686	-0.00458984	0.243824	
13.551	0.34375	30.4464	4.97284	0.0241089	0.00640869	0.0186157	12.5977	-0.777038	30.2453	0.529292	12.8425	-0.244791	0.00267334	-0.00424805	0.244791	
13.0732	-0.3125	30.2869	4.97772	0.0216675	0.00366211	-0.00579834	12.5973	-0.779295	30.244	0.529271	12.8426	-0.245303	0.002771	-0.00234375	0.245303	
19.1104	-0.46875	30.372	4.97559	0.0241089	0.00213623	-0.0585938	12.5983	-0.781105	30.2429	0.529251	12.8428	-0.244482	0.00274658	-0.00357666	0.244482	
12.552	0.75	30.1168	4.9823	0.0247192	0.00274658	-0.0332642	12.6013	-0.782446	30.2419	0.529233	12.8429	-0.241598	0.00269775	-0.00587158	0.241598	
12.5955	-0.375	30.3188	4.98016	0.0241089	0.00213623	-0.0387573	12.6052	-0.783152	30.2408	0.529215	12.8431	-0.237823	0.00267334	-0.00887451	0.237823	
12.9429	-0.53125	30.053	4.98657	0.0238037	0.00396729	-0.00274658	12.6091	-0.783429	30.2398	0.529197	12.8432	-0.234142	0.00264893	-0.00758057	0.234142	
12.9429	-0.59375	31.0099	4.98047	0.0247192	0.00366211	-0.027771	12.6129	-0.783526	30.2389	0.529181	12.8433	-0.230426	0.00263672	-0.00926514	0.230426	
13.4207	-0.78125	30.3188	4.98077	0.0241089	0.000915527	-0.00335693	12.6169	-0.783522	30.2383	0.52917	12.8434	-0.226532	0.00267334	-0.00732422	0.226532	
14.3762	0.4375	30.5314	4.9823	0.0253296	0.00213623	0.0271606	12.6213	-0.783298	30.2378	0.529162	12.8435	-0.222176	0.00263672	-0.00739746	0.222176	
3.82207	-0.84375	30.0318	4.98871	0.0256348	0.00274658	-0.0180054	12.6248	-0.782712	30.2375	0.529156	12.8435	-0.218659	0.00267334	-0.00737305	0.218659	
11.1622	-2.21875	29.8829	4.99084	0.0234985	0.00274658	0.027771	12.6256	-0.782198	30.2371	0.529149	12.8436	-0.217961	0.00274658	-0.00693359	0.217961	
11.8571	4.53125	29.9892	4.99176	0.0271606	0.00396729	-0.00610352	12.6244	-0.781334	30.2365	0.529139	12.8436	-0.219251	0.00274658	-0.00841064	0.219251	
12.0743	-1.03125	30.2976	4.98932	0.0250244	0.00213623	0.0100708	12.6227	-0.779113	30.2358	0.529127	12.8437	-0.221062	0.002771	-0.00587158	0.221062	
11.944	-0.84375	29.5959	4.99176	0.0259399	0.00274658	-0.0387573	12.6206	-0.776234	30.2351	0.529113	12.8438	-0.223219	0.00281982	-0.00727539	0.223219	
12.7258	-1	27.2995	4.98871	0.0259399	0.00274658	0.00427246	12.6183	-0.773551	30.2337	0.529089	12.844	-0.225664	0.00280762	-0.00839844	0.225664	
11.8571	-1.125	30.1062	4.99054	0.0271606	0.00488281	0.0643921	12.616	-0.771097	30.2313	0.529048	12.8443	-0.228349	0.00291748	-0.00662842	0.228349	
14.5065	-1	30.1593	4.9942	0.0259399	0.00213623	0.00976563	12.6138	-0.76891	30.2285	0.528999	12.8447	-0.230931	0.00285645	-0.00458984	0.230931	
11.2925	-0.71875	29.9892	4.99512	0.0271606	0.00427246	0.0204468	12.6119	-0.766919	30.2257	0.52895	12.845	-0.233168	0.00296631	-0.00251465	0.233168	
10.8147	-1.15625	29.8617	4.99237	0.0238037	0.00213623	-0.00640869	12.6097	-0.765078	30.2229	0.528901	12.8454	-0.23574	0.00292969	-0.00268555	0.23574	
12.5086	-0.90625	30.1593	4.99298	0.0256348	0.00427246	0.0265503	12.6068	-0.763438	30.22	0.528851	12.8458	-0.239019	0.00307617	-0.00131836	0.239019	
13.6378	0.40625	30.6271	4.9826	0.0241089	0.00366211	0.0088501	12.6038	-0.761779	30.2173	0.528802	12.8462	-0.242334	0.00306396	-0.000610352	0.242334	
13.0298	-0.21875	32.0943	4.98932	0.0234985	0.00488281	0.0460815	12.6014	-0.759754	30.215	0.528762	12.8465	-0.245108	0.00317383	0.00280762	0.245108	
12.5955	-0.34375	30.4145	4.98566	0.0247192	-0.00213623	-0.027771	12.5993	-0.757386	30.2134	0.528735	12.8467	-0.247402	0.00296631	0.000476074	0.247402	
10.9016	-1.09375	30.372	4.99298	0.0265503	0.00366211	-0.0692749	12.597	-0.754941	30.2124	0.528716	12.8468	-0.249765	0.00303955	-0.00245361	0.249765	
7.64414	-1.0625	30.3507	4.9765	0.0253296	0.00305176	0.0286865	12.5936	-0.75267	30.2114	0.5287	12.8469	-0.253326	0.00302734	-0.00175781	0.253326	
12.7692	1.3125	30.1806	4.99268	0.0247192	0.00457764	-0.0289917	12.5885	-0.750308	30.2106	0.528685	12.847	-0.258525	0.0029541	-0.00366211	0.258525	
12.7692	-0.90625	30.255	4.99298	0.0268555	0.00213623	-0.0195313	12.5829	-0.74746	30.2098	0.528671	12.8471	-0.264224	0.00289307	-0.00421143	0.264224	
12.9864	-0.53125	30.4677	4.98962	0.0256348	0.00152588	0.00946045	12.5777	-0.744408	30.209	0.528658	12.8472	-0.269568	0.00286865	-0.00148926	0.269568	
14.2025	0.1875	29.7341	4.98566	0.0234985	-0.000305176	-0.0619507	12.573	-0.741277	30.2083	0.528646	12.8473	-0.274314	0.00274658	-0.00263672	0.274314	
12.5086	-0.90625	30.2444	4.9939	0.0247192	0.00427246	0.0479126	12.5691	-0.73796	30.2076	0.528633	12.8474	-0.278349	0.00283203	0.000830078	0.278349	
10.8582	-1.78125	30.053	4.99481	0.0228882	0.00335693	0.0384521	12.5653	-0.73483	30.2067	0.528618	12.8475	-0.282284	0.00280762	0.00247803	0.282284	
20.4568	-1.21875	30.1168	5.00366	0.0265503	0.00335693	-0.027771	12.5623	-0.732235	30.2059	0.528603	12.8477	-0.285404	0.00279541	0.00247803	0.285404	
12.5955	0.21875	30.1912	4.99115	0.0241089	0.00213623	0.0537109	12.5615	-0.729897	30.205	0.528588	12.8478	-0.286231	0.00284424	0.00476074	0.286231	
12.2914	-6.125	30.2231	4.99176	0.0253296	0.00213623	0.00640869	12.562	-0.728259	30.2042	0.528573	12.8479	-0.285838	0.00284424	0.00393066	0.285838	
12.1611	-0.78125	30.2657	4.99237	0.0265503	0.00152588	0.0112915	12.5624	-0.728214	30.2033	0.528559	12.848	-0.285598	0.00279541	0.00510254	0.285598	
12.7692	-0.96875	30.7122	4.9939	0.0265503	0.00274658	-0.0198364	12.5626	-0.729062	30.2027	0.528547	12.8481	-0.285488	0.00279541	0.00319824	0.285488	
12.6389	-1.375	30.1168	4.9939	0.0247192	0.00152588	0.0308228	12.5628	-0.730063	30.2022	0.528538	12.8481	-0.285347	0.00269775	0.00467529	0.285347	
12.248	-1.5	29.9999	4.99481	0.0253296	0.00762939	-0.0119019	12.563	-0.731386	30.2017	0.528529	12.8482	-0.285202	0.00291748	0.00379639	0.285202	
7.81787	-1.875	30.0318	4.99237	0.0262451	0.00213623	-0.0137329	12.5624	-0.733178	30.2011	0.52852	12.8483	-0.285897	0.00289307	0.00479736	0.285897	
12.8561	-0.40625	30.2869	4.98993	0.0265503	0.00213623	-0.0198364	12.5603	-0.73533	30.2005	0.528509	12.8484	-0.288053	0.00286865	0.00383301	0.288053	
14.2893	1.6875	30.5952	4.98444	0.0231934	0.00152588	-0.0418091	12.5579	-0.737106	30.2	0.5285	12.8484	-0.290501	0.00273437	-0.000415039	0.290501	
13.5075	-0.15625	30.372	4.98566	0.0244141	0.00335693	0.017395	12.5564	-0.737926	30.1997	0.528494	12.8485	-0.292111	0.0027832	-0.000109863	0.292111	
13.551	-0.28125	30.1487	4.98566	0.0265503	0.00213623	-0.027771	12.5556	-0.73809	30.1994	0.52849	12.8485	-0.292933	0.00269775	-0.00203857	0.292933	
13.1167	-0.875	31.4139	4.98505	0.0271606	0.00366211	0.0186157	12.5553	-0.738037	30.1994	0.52849	12.8485	-0.293156	0.00275879	-0.0010376	0.293156	
12.6823	-0.625	30.3401	4.98749	0.0222778	-0.0012207	0.0320435	12.5555	-0.73794	30.1998	0.528496	12.8485	-0.292972	0.00253906	-0.000817871	0.292972	
15.766	-0.40625	30.1912	4.98901	0.0253296	0.00152588	-0.0485229	12.5562	-0.737782	30.2004	0.528507	12.8484	-0.292139	0.00245361	-0.00311279	0.292139	
12.9864	-0.5625	30.2444	4.98932	0.0259399	0.00396729	0.00732422	12.558	-0.737481	30.201	0.528517	12.8483	-0.29025	0.00241699	-0.00466309	0.29025	
13.4207	-2.09375	30.3826	4.97925	0.0259399	0.00274658	-0.0167847	12.5606	-0.737295	30.2016	0.528528	12.8482	-0.287657	0.0026123	-0.00422363	0.287657	
14.2459	0.28125	30.5846	4.97894	0.0201416	0.00213623	-0.0152588	12.5636	-0.737352	30.2023	0.528541	12.8481	-0.284544	0.00255127	-0.00206299	0.284544	
12.7692	-0.71875	30.255	4.97925	0.0256348	0.00366211	-0.00762939	12.5672	-0.737298	30.2032	0.528555	12.848	-0.280833	0.00257568	-0.00351563	0.280833	
11.4228	-1.59375	30.7972	4.98932	0.0247192	0.000915527	0.00579834	12.5708	-0.737216	30.2042	0.528573	12.8479	-0.277083	0.0024292	-0.00212402	0.277083	
12.248	-1.09375	29.9467	4.9826	0.0265503	0.00518799	0.0100708	12.5739	-0.737454	30.2053	0.528592	12.8477	-0.273821	0.00255127	-0.000939941	0.273821	
12.0743	-1.3125	30.2231	4.97955	0.0222778	0.00244141	0.0234985	12.5766	-0.738017	30.2063	0.528611	12.8476	-0.271027	0.00258789	-0.000378418	0.271027	
14.0287	-1.1875	30.1487	4.96765	0.0247192	0.000915527	0.0656128	12.5791	-0.738863	30.2073	0.528628	12.8475	-0.268319	0.00263672	0.00472412	0.268319	
12.6823	-0.6875	30.1806	4.98199	0.0256348	0.000915527	-0.0448608	12.582	-0.7399	30.2083	0.528645	12.8473	-0.26532	0.00250244	0.00101318	0.26532	
12.9429	-0.84375	30.2444	4.98047	0.0256348	0.00457764	0.00213623	12.5851	-0.74097	30.2092	0.528661	12.8472	-0.262116	0.00255127	-0.000439453	0.262116	
12.6823	-1.1875	30.1593	4.98199	0.0265503	0.00396729	-0.0473022	12.5882	-0.742095	30.21	0.528676	12.8471	-0.258882	0.00257568	-0.0012207	0.258882	
12.248	-1.34375	29.7341	4.97955	0.0241089	0.00213623	0.00793457	12.5913	-0.743429	30.2108	0.528689	12.847	-0.255742	0.00257568	-0.00305176	0.255742	
11.5965	-1.875	29.9042	4.9826	0.0283813	0.00213623	0.0265503	12.594	-0.745146	30.2113	0.528698	12.8469	-0.252984	0.00257568	-0.00224609	0.252984	
13.9853	-0.375	30.1062	4.97528	0.0256348	-0.0012207	0.0106812	12.5964	-0.74719	30.2116	0.528703	12.8469	-0.250494	0.00246582	-0.00227051	0.250494	
20.7174	0.34375	30.6484	4.97223	0.0241089	0.00213623	0.0332642	12.6003	-0.749053	30.2119	0.528709	12.8469	-0.246558	0.00244141	-0.000146484	0.246558	
13.5944	-0.53125	30.457	4.96948	0.0274658	0.00335693	0.00610352	12.607	-0.750419	30.2124	0.528716	12.8468	-0.23985	0.00251465	-0.00113525	0.23985	
13.0732	-0.125	30.2019	4.97437	0.0253296	0.00152588	-0.0143433	12.615	-0.751403	30.2129	0.528726	12.8467	-0.231721	0.00227051	-0.00123291	0.231721	
12.9429	-0.46875	30.255	4.97406	0.0247192	0.00244141	0.00610352	12.6231	-0.752081	30.2135	0.528737	12.8467	-0.223525	0.00228271	-0.000439453	0.223525	
13.2035	-0.71875	30.1381	4.97528	0.0247192	0.00396729	-0.00610352	12.6312	-0.752544	30.2141	0.528746	12.8466	-0.215357	0.00235596	0.000109863	0.215357	
12.8995	-0.625	30.0318	4.97284	0.0271606	0.0012207	-0.0119019	12.6393	-0.752917	30.2146	0.528755	12.8465	-0.207212	0.00234375	0.00130615	0.207212	
13.2035	0.03125	30.2657	4.97528	0.0231934	0.0088501	0.0115967	12.6474	-0.75311	30.215	0.528763	12.8465	-0.199104	0.00256348	0.00107422	0.199104	
14.0722	-0.34375	30.3294	4.96857	0.0256348	0.00305176	0.00640869	12.6556	-0.752969	30.2154	0.52877	12.8464	-0.190846	0.0026001	0.00244141	0.190846	
14.3328	0.71875	30.4464	4.96735	0.0234985	0.00213623	-0.0119019	12.6643	-0.752357	30.2159	0.528778	12.8463	-0.18208	0.00253906	0.0012207	0.18208	
12.8126	5.1875	30.1062	4.97162	0.0259399	0.00366211	-0.00274658	12.6734	-0.750324	30.2164	0.528788	12.8463	-0.172853	0.00273437	-0.000170898	0.172853	
12.1177	-1.71875	29.766	4.97833	0.0271606	0.00213623	0.0238037	12.6825	-0.746443	30.2169	0.528795	12.8462	-0.163742	0.00275879	0.00272217	0.163742	
12.248	-1.0625	29.7341	4.97345	0.0259399	0.00244141	0.0198364	12.691	-0.742127	30.2171	0.528799	12.8462	-0.155202	0.00269775	0.00322266	0.155202	
11.7268	-0.46875	30.0318	4.9762	0.0222778	0.00152588	-0.0567627	12.6988	-0.73817	30.217	0.528798	12.8462	-0.147369	0.00264893	0.00162354	0.147369	
12.8126	-0.8125	30.0318	4.97375	0.0259399	0	0.012207	12.706	-0.73433	30.2168	0.528794	12.8462	-0.140185	0.00256348	0.00272217	0.140185	
14.159	-0.875	30.1062	4.97284	0.0250244	0	-0.0265503	12.7131	-0.730628	30.2165	0.528789	12.8463	-0.133159	0.00241699	0.00196533	0.133159	
12.5955	-0.53125	30.2125	4.97162	0.0241089	0.00244141	-0.0131226	12.7204	-0.727083	30.2161	0.528782	12.8463	-0.12594	0.00247803	0.0012085	0.12594	
12.5086	-3.375	30.1168	4.97681	0.0274658	0.00366211	-0.0241089	12.7275	-0.724034	30.2157	0.528775	12.8464	-0.118827	0.00241699	-0.000158691	0.118827	
12.1177	-0.96875	29.9573	4.97467	0.0256348	0.00274658	0.0473022	12.7343	-0.721922	30.2153	0.528768	12.8464	-0.112154	0.0024292	0.000793457	0.112154	
11.3359	-1.28125	29.9892	4.97955	0.0247192	0.00213623	0.00976563	12.7403	-0.72046	30.2147	0.528758	12.8465	-0.106175	0.00247803	-0.00144043	0.106175	
12.7692	-0.59375	29.5427	4.97437	0.0241089	0.00366211	-0.00946045	12.7456	-0.719241	30.214	0.528745	12.8466	-0.100961	0.00258789	-2.44141E-005	0.100961	
14.2893	0.1875	30.4677	4.96582	0.0241089	0.00274658	-0.0595093	12.7508	-0.717972	30.2131	0.528729	12.8467	-0.0959269	0.00251465	-0.00249023	0.0959269	
14.2893	-0.25	30.2869	4.97192	0.0241089	0.00274658	-0.0280762	12.7565	-0.716375	30.2121	0.528713	12.8468	-0.0903519	0.00246582	-0.00172119	0.0903519	
9.25115	-0.625	30.4145	4.97437	0.0250244	0.00335693	0.0378418	12.7621	-0.714534	30.2114	0.528699	12.8469	-0.0847896	0.00251465	-0.000524902	0.0847896	
12.6823	0.3125	30.1168	4.97375	0.0256348	0.00396729	0.0219727	12.7667	-0.712499	30.2107	0.528687	12.847	-0.0802786	0.00258789	-0.000708008	0.0802786	
12.5086	-0.625	30.3082	4.97528	0.0241089	0.0012207	-0.0430298	12.7706	-0.710189	30.21	0.528675	12.8471	-0.0765345	0.00268555	-0.00285645	0.0765345	
12.4652	-0.4375	30.1487	4.97131	0.0231934	0.00213623	-0.0228882	12.7741	-0.707733	30.2094	0.528664	12.8472	-0.0730626	0.00268555	-0.00510254	0.0730626	
12.8126	0.03125	29.6916	4.97467	0.0241089	0.00152588	-0.0515747	12.7774	-0.705151	30.2087	0.528652	12.8473	-0.0698541	0.0026123	-0.00740967	0.0698541	
13.0298	0.15625	30.2869	4.97498	0.0247192	0.00366211	0.0509644	12.7806	-0.702255	30.2079	0.528638	12.8474	-0.0667768	0.00269775	-0.00479736	0.0667768	
14.4631	0.625	30.3932	4.97375	0.0256348	0.00457764	-0.0497437	12.784	-0.698875	30.2071	0.528623	12.8475	-0.0634671	0.0027832	-0.00703125	0.0634671	
13.2035	-0.5625	30.0849	4.98077	0.0271606	0.00213623	0.0488281	12.788	-0.695048	30.2063	0.52861	12.8476	-0.0596421	0.00270996	-0.00483398	0.0596421	
11.2056	-2.59375	29.7766	4.98352	0.0265503	0.000610352	-0.0366211	12.7919	-0.691403	30.2055	0.528597	12.8477	-0.0558172	0.00268555	-0.00582275	0.0558172	
11.944	-8.09375	29.9892	4.9826	0.0234985	0.00274658	0.0332642	12.7951	-0.689605	30.2046	0.52858	12.8478	-0.0527101	0.00244141	-0.00495605	0.0527101	
11.2056	-1.09375	29.9573	4.98383	0.0241089	0.000610352	-0.00213623	12.7975	-0.690524	30.2035	0.528561	12.848	-0.0504914	0.00234375	-0.00529785	0.0504914	
11.9874	-0.96875	30.2231	4.98077	0.0253296	0.00152588	-0.0100708	12.799	-0.692729	30.2023	0.528541	12.8481	-0.0491162	0.00231934	-0.00522461	0.0491162	
12.3349	-0.71875	30.2231	4.97589	0.0259399	0.00152588	-0.000305176	12.7999	-0.695008	30.2012	0.528521	12.8483	-0.0483638	0.00223389	-0.00512695	0.0483638	
12.1177	-0.75	30.053	4.98657	0.0247192	-0.000915527	-0.038147	12.8004	-0.697266	30.2001	0.528501	12.8484	-0.0480156	0.00211182	-0.00760498	0.0480156	
9.20771	-0.96875	30.1806	4.98199	0.0241089	0.00274658	0.043335	12.8	-0.699508	30.199	0.528482	12.8486	-0.0485269	0.00212402	-0.00666504	0.0485269	
11.5096	-0.96875	29.9573	5.00061	0.0271606	0.00518799	0.0106812	12.7983	-0.701804	30.1978	0.528462	12.8487	-0.0504498	0.00227051	-0.00396729	0.0504498	
11.3359	2.84375	29.8829	4.9881	0.0244141	0.00335693	0.0222778	12.7954	-0.703594	30.1966	0.52844	12.8489	-0.0535058	0.00240479	-0.00356445	0.0535058	
12.5086	-0.625	30.2019	4.97375	0.0244141	0.00396729	0.00762939	12.7919	-0.704249	30.1952	0.528417	12.8491	-0.0571695	0.00256348	-0.00219727	0.0571695	
13.4207	0.125	30.4145	4.98138	0.0210571	0.00274658	-0.0338745	12.7883	-0.704179	30.194	0.528394	12.8492	-0.0609231	0.00257568	-0.00302734	0.0609231	
13.1167	-0.28125	31.4351	4.98566	0.0256348	0.00366211	-0.0137329	12.785	-0.703775	30.193	0.528377	12.8494	-0.0643074	0.00257568	-0.0026123	0.0643074	
12.8995	-0.8125	30.255	4.98505	0.0259399	0.00366211	0.0234985	12.7821	-0.703143	30.1925	0.528368	12.8494	-0.0672979	0.0026123	-0.00356445	0.0672979	
14.159	-0.59375	30.3294	4.9884	0.0241089	0.0012207	-0.027771	12.7796	-0.702484	30.1922	0.528363	12.8495	-0.0698513	0.00257568	-0.00506592	0.0698513	
12.4652	-0.6875	30.2444	4.98993	0.0247192	0.0012207	-0.0759888	12.7776	-0.701829	30.192	0.52836	12.8495	-0.0719098	0.00247803	-0.00772705	0.0719098	
12.6389	-0.96875	30.1912	4.99054	0.0256348	0.00396729	0.00854492	12.7757	-0.701217	30.1918	0.528357	12.8495	-0.0737956	0.00252686	-0.00500488	0.0737956	
12.4652	-0.53125	30.4145	4.98444	0.0222778	0.00335693	-0.0363159	12.7738	-0.700682	30.1917	0.528355	12.8495	-0.0757488	0.00255127	-0.00533447	0.0757488	
13.2904	-0.21875	30.4358	4.99023	0.0244141	0.00396729	-0.0302124	12.7719	-0.700079	30.1917	0.528355	12.8495	-0.0776562	0.00257568	-0.00805664	0.0776562	
14.2893	0.28125	28.8304	4.98322	0.0253296	0.00366211	0.0427246	12.7704	-0.699169	30.1916	0.528354	12.8495	-0.0791616	0.00256348	-0.00722656	0.0791616	
11.9005	-1.21875	30.7015	4.97223	0.0274658	0.00244141	-0.00152588	12.7693	-0.697993	30.1912	0.528347	12.8496	-0.0802374	0.0026123	-0.00556641	0.0802374	
10.1198	-1.78125	29.9361	4.99603	0.0247192	0.00213623	0.0164795	12.7679	-0.697036	30.1908	0.528338	12.8496	-0.0817325	0.0026123	-0.0039917	0.0817325	
19.8053	-1.28125	30.1062	4.99908	0.0259399	0.00366211	0.0509644	12.7667	-0.69662	30.1903	0.52833	12.8497	-0.0830416	0.00269775	0.000109863	0.0830416	
12.5955	-0.65625	30.2019	4.99634	0.0259399	0.00213623	-0.0222778	12.7672	-0.696563	30.1898	0.528321	12.8498	-0.0825665	0.00263672	-0.00281982	0.0825665	
11.7268	-0.96875	30.1912	4.99176	0.0247192	0.000305176	-0.0466919	12.7686	-0.696627	30.1893	0.528312	12.8498	-0.081232	0.00246582	-0.00269775	0.081232	
12.6823	-1.03125	30.1912	4.99298	0.0216675	0.00366211	0.0088501	12.7696	-0.69682	30.1888	0.528303	12.8499	-0.0803072	0.00252686	-0.00429688	0.0803072	
12.7692	-1.09375	31.1268	4.99023	0.0234985	0.00366211	0.00457764	12.7704	-0.697213	30.1884	0.528298	12.8499	-0.0795843	0.00264893	-0.00264893	0.0795843	
12.1177	-1.0625	30.1062	4.9942	0.0289917	0.00335693	0.0396729	12.771	-0.697824	30.1884	0.528297	12.85	-0.0789654	0.00267334	-0.00239258	0.0789654	
11.9005	-1.96875	30.1062	4.99451	0.0265503	0.00274658	-0.0424194	12.7712	-0.698786	30.1885	0.528298	12.8499	-0.0786921	0.00275879	-0.00400391	0.0786921	
1.82417	-2.03125	30.0743	4.99847	0.0216675	0.00152588	-0.0396729	12.7694	-0.700371	30.1885	0.528299	12.8499	-0.0805056	0.00275879	-0.00518799	0.0805056	
12.8995	-1.71875	30.2444	4.99054	0.0247192	0.00457764	0.00244141	12.7642	-0.702668	30.1885	0.528298	12.8499	-0.0857719	0.00288086	-0.00507813	0.0857719	
13.3772	5.65625	30.5952	4.98352	0.0259399	0.00152588	0.0231934	12.7575	-0.704421	30.1885	0.528299	12.8499	-0.0924063	0.00297852	-0.00262451	0.0924063	
12.9429	-0.28125	30.5208	4.98871	0.0259399	0.00274658	0.0338745	12.7514	-0.70423	30.1887	0.528303	12.8499	-0.0985414	0.00297852	-0.00300293	0.0985414	
13.551	-1.03125	30.0743	4.99054	0.0265503	0.00366211	0.00610352	12.7457	-0.702978	30.1891	0.528309	12.8499	-0.104162	0.00291748	-0.00318604	0.104162	
12.4217	-0.84375	27.6184	4.99359	0.0247192	0.00274658	-0.00823975	12.7405	-0.701828	30.1891	0.528308	12.8499	-0.109407	0.00289307	-0.00440674	0.109407	
11.944	-0.625	30.3613	4.99054	0.0247192	0.00366211	-0.0112915	12.7353	-0.700802	30.1882	0.528294	12.85	-0.114668	0.00288086	-0.00516357	0.114668	
15.3751	-0.3125	30.255	4.99146	0.0241089	0.00366211	0.00549316	12.7304	-0.69975	30.1871	0.528274	12.8501	-0.119675	0.00291748	-0.00358887	0.119675	
12.8561	-0.15625	30.3294	4.98993	0.0231934	0.00366211	-0.00396729	12.7265	-0.698519	30.1861	0.528257	12.8503	-0.123779	0.00291748	-0.00319824	0.123779	
12.5955	-3.5	30.6165	4.9884	0.0228882	0.00274658	-0.00762939	12.7231	-0.697537	30.1852	0.528242	12.8504	-0.127293	0.00288086	-0.00444336	0.127293	
13.9853	0.03125	30.7015	4.98413	0.0241089	0.00244141	-0.0311279	12.72	-0.697262	30.1846	0.528231	12.8504	-0.130477	0.00292969	-0.00457764	0.130477	
12.8126	-1.71875	30.1168	4.9826	0.0256348	0.00366211	-0.00518799	12.7174	-0.697364	30.1843	0.528225	12.8505	-0.133133	0.00302734	-0.00174561	0.133133	
11.2925	-1.78125	31.9454	4.99298	0.0256348	0.00213623	0.0631714	12.7148	-0.697834	30.1843	0.528225	12.8505	-0.135647	0.0029541	0.000439453	0.135647	
12.2914	-1.46875	30.1593	4.98657	0.0283813	0.00457764	-0.0186157	12.7119	-0.698902	30.1848	0.528234	12.8504	-0.138496	0.00300293	0.00114746	0.138496	
10.5976	-1.34375	30.1062	4.9881	0.0262451	0.00274658	-0.000915527	12.7084	-0.70044	30.1855	0.528247	12.8503	-0.141891	0.0029541	0.00231934	0.141891	
-1.21611	-1	30.0956	4.9823	0.0265503	0.00274658	0.00213623	12.7022	-0.702289	30.1862	0.528259	12.8502	-0.148053	0.00291748	0.000695801	0.148053	
12.6823	0.65625	30.2763	4.98505	0.0231934	0.00366211	0.0363159	12.6915	-0.704055	30.1869	0.52827	12.8502	-0.158651	0.00296631	0.00220947	0.158651	
12.4652	-1.09375	30.3082	4.98779	0.027771	0.00152588	0.0344849	12.679	-0.705443	30.1875	0.528282	12.8501	-0.171071	0.00294189	0.00292969	0.171071	
12.8995	-1.09375	30.1381	4.98932	0.0259399	0.00274658	0.0515747	12.6669	-0.706752	30.1882	0.528293	12.85	-0.183083	0.00290527	0.0029541	0.183083	
12.5955	-1.15625	28.9686	4.98505	0.0253296	0.00366211	0.0592041	12.6552	-0.708266	30.1886	0.528301	12.8499	-0.19467	0.00296631	0.00621338	0.19467	
11.4228	-1.9375	29.9042	4.9884	0.0259399	0.00305176	-0.0115967	12.6438	-0.710116	30.1887	0.528302	12.8499	-0.206081	0.00307617	0.00761719	0.206081	
13.8116	-0.84375	30.2869	4.97955	0.0262451	0.00274658	-0.00579834	12.6326	-0.712372	30.1884	0.528297	12.8499	-0.217333	0.00303955	0.00703125	0.217333	
23.4102	0.125	30.6271	4.98322	0.0241089	0.00213623	-0.0759888	12.6236	-0.714651	30.1882	0.528294	12.85	-0.226335	0.00297852	0.00380859	0.226335	
13.6378	-1.1875	30.2444	4.97223	0.0247192	0.00274658	-0.0012207	12.6187	-0.716683	30.1882	0.528294	12.85	-0.231313	0.0029541	0.00217285	0.231313	
13.0298	-4.96875	30.372	4.9762	0.0247192	0.00274658	0.0320435	12.6159	-0.719319	30.1883	0.528295	12.85	-0.234047	0.0029541	0.00515137	0.234047	
13.2035	-0.6875	30.3294	4.97833	0.0256348	0.000915527	-0.0521851	12.6136	-0.723249	30.1885	0.528298	12.8499	-0.236296	0.00292969	0.00465088	0.236296	
13.2469	-0.34375	30.5846	4.97467	0.0265503	0.00213623	0.0149536	12.6118	-0.727631	30.1888	0.528304	12.8499	-0.238104	0.00283203	0.00515137	0.238104	
12.8995	-0.46875	30.255	4.97955	0.0234985	0.0012207	-0.0296021	12.6103	-0.731694	30.1892	0.528312	12.8498	-0.239494	0.00281982	0.00303955	0.239494	
13.1167	-0.4375	30.1912	4.97772	0.0234985	0.00823975	-0.00762939	12.6092	-0.735427	30.1897	0.528321	12.8498	-0.240558	0.00303955	0.00137939	0.240558	
9.64204	0.125	30.4889	4.96643	0.0259399	0.00305176	0.0540161	12.6079	-0.738764	30.1903	0.52833	12.8497	-0.241835	0.00301514	0.0032959	0.241835	
14.5934	0.53125	30.5846	4.9881	0.0259399	0.00213623	0.0296021	12.606	-0.741471	30.191	0.528342	12.8496	-0.243581	0.00299072	0.00480957	0.243581	
12.8126	4.5625	30.053	4.97345	0.0247192	0.00335693	0.0143433	12.6044	-0.742732	30.1918	0.528357	12.8495	-0.245058	0.00297852	0.00583496	0.245058	
11.3793	-1.78125	29.8191	4.98047	0.0259399	0.00213623	0.000305176	12.6031	-0.742267	30.1926	0.52837	12.8494	-0.246305	0.00291748	0.00562744	0.246305	
12.1177	-1.3125	29.8829	4.97406	0.0250244	0.00274658	-0.0241089	12.6014	-0.741405	30.1931	0.528379	12.8493	-0.247955	0.00288086	0.00482178	0.247955	
12.1177	-0.71875	31.4564	4.97314	0.0262451	0.00213623	0.00640869	12.5993	-0.740908	30.1936	0.528389	12.8493	-0.249958	0.00285645	0.0053833	0.249958	
12.7692	-1.09375	30.0743	4.97314	0.0241089	0.00305176	-0.0646973	12.5971	-0.740566	30.1945	0.528404	12.8491	-0.252045	0.00288086	0.00404053	0.252045	
15.3751	-0.78125	30.0743	4.97681	0.0247192	0.00152588	0.0427246	12.5954	-0.740347	30.1955	0.528421	12.849	-0.253631	0.00279541	0.00595703	0.253631	
12.7692	-0.4375	30.1487	4.97437	0.0241089	0.00152588	-0.0186157	12.5947	-0.740157	30.1963	0.528436	12.8489	-0.254253	0.002771	0.00268555	0.254253	
12.8561	-3.21875	30.0743	4.97437	0.0271606	0.00213623	-0.0131226	12.5945	-0.740271	30.1971	0.52845	12.8488	-0.254335	0.00267334	0.00290527	0.254335	
11.944	-1.40625	30.053	4.97406	0.0234985	0.00274658	0.0088501	12.5943	-0.741206	30.1978	0.528462	12.8487	-0.254415	0.00267334	0.0032959	0.254415	
11.6834	-1.78125	29.8617	4.97711	0.0259399	0.00213623	0.0271606	12.5938	-0.742861	30.1984	0.528472	12.8486	-0.254811	0.00264893	0.00429688	0.254811	
12.552	-0.6875	30.2444	4.97375	0.0241089	0.00335693	0.0430298	12.593	-0.744874	30.1988	0.528479	12.8486	-0.255598	0.00263672	0.00456543	0.255598	
14.0287	0.3125	30.5421	4.9649	0.0238037	0.00518799	-0.0570679	12.5922	-0.746796	30.1992	0.528486	12.8485	-0.256286	0.0027832	0.00090332	0.256286	
11.5965	-0.125	30.2019	4.97131	0.0259399	0.00213623	-0.0210571	12.5918	-0.748216	30.1997	0.528495	12.8485	-0.256651	0.00275879	-0.00200195	0.256651	
13.2904	-0.375	30.2019	4.97284	0.0241089	0.00213623	0.0405884	12.5914	-0.749171	30.2003	0.528505	12.8484	-0.256973	0.00269775	-0.00274658	0.256973	
13.0298	0.90625	30.1593	4.97681	0.0265503	0.00366211	0.0271606	12.5912	-0.749623	30.2008	0.528514	12.8483	-0.257155	0.00272217	-0.00119629	0.257155	
13.0732	-0.53125	30.2125	4.97498	0.0265503	0.00213623	-0.0448608	12.5912	-0.749453	30.2013	0.528523	12.8483	-0.257012	0.00269775	-0.00275879	0.257012	
13.0298	-0.34375	30.1168	4.97284	0.0244141	0.00213623	-0.0106812	12.5916	-0.748902	30.2018	0.528531	12.8482	-0.25659	0.00269775	-0.000146484	0.25659	
13.0732	-0.375	29.8617	4.97101	0.0216675	0.00396729	0.00579834	12.5922	-0.748152	30.2021	0.528538	12.8481	-0.255908	0.00274658	0.000134277	0.255908	
13.1601	-0.40625	30.3082	4.97528	0.0256348	0.00152588	-0.000915527	12.5932	-0.747197	30.2024	0.528542	12.8481	-0.254958	0.00269775	-0.00118408	0.254958	
14.3762	0.875	30.4783	4.96948	0.0234985	-0.00335693	0.0436401	12.5946	-0.74586	30.2027	0.528547	12.8481	-0.253511	0.00252686	0.00264893	0.253511	
18.068	-0.25	30.1593	4.97559	0.0247192	0.0012207	-0.0714111	12.5974	-0.743938	30.203	0.528553	12.848	-0.250613	0.00249023	-0.000805664	0.250613	
11.4228	-2.15625	29.7766	4.98077	0.0292969	0.00396729	0.0811768	12.602	-0.741897	30.2033	0.528558	12.848	-0.246029	0.0026001	0.00362549	0.246029	
11.7268	-1.40625	29.968	4.98138	0.0256348	0.00213623	-0.0012207	12.6067	-0.740393	30.2034	0.52856	12.848	-0.241282	0.00235596	0.00388184	0.241282	
11.7268	-1.3125	30.1062	4.97925	0.0259399	0.0012207	-0.0195313	12.6107	-0.739456	30.2034	0.52856	12.848	-0.237314	0.00228271	0.000939941	0.237314	
11.9874	-0.65625	30.4889	4.97589	0.022583	0.00274658	0.0170898	12.614	-0.738821	30.2033	0.528559	12.848	-0.233996	0.00230713	0.000439453	0.233996	
12.4652	-0.59375	27.8948	4.98383	0.0259399	0.00427246	-0.0308228	12.6168	-0.738249	30.203	0.528553	12.848	-0.231187	0.00234375	-0.00136719	0.231187	
12.5955	-0.875	30.053	4.97986	0.0271606	0.00823975	-0.00610352	12.6195	-0.73766	30.202	0.528535	12.8482	-0.228714	0.00258789	-0.00162354	0.228714	
9.29458	-1.15625	30.1168	4.97955	0.0259399	0.00213623	-0.0476074	12.6214	-0.737177	30.2006	0.52851	12.8484	-0.226931	0.00256348	-0.00256348	0.226931	
11.9005	-1.15625	29.9999	4.98047	0.0238037	0.00305176	0.00274658	12.6222	-0.736927	30.1991	0.528485	12.8485	-0.226368	0.0026001	-0.00270996	0.226368	
11.1188	3.71875	29.851	4.98383	0.0259399	0.00396729	0.0515747	12.6219	-0.73619	30.1976	0.528458	12.8487	-0.226815	0.00263672	0.00194092	0.226815	
12.9429	-0.875	30.053	4.98535	0.0256348	0.00335693	-0.00610352	12.6212	-0.734183	30.196	0.52843	12.849	-0.227796	0.00270996	-1.2207E-005	0.227796	
13.551	0.15625	30.2657	4.97467	0.0234985	0.00366211	0.00457764	12.6204	-0.731461	30.1943	0.528401	12.8492	-0.228743	0.00279541	0.000915527	0.228743	
13.2035	-0.125	30.2231	4.97955	0.022583	0.00274658	0.00640869	12.6202	-0.728487	30.1927	0.528373	12.8494	-0.229228	0.00281982	0.00169678	0.229228	
12.9864	-0.375	30.4358	4.98505	0.0259399	-0.0012207	-0.0549316	12.6203	-0.725237	30.1913	0.528347	12.8496	-0.229305	0.00266113	-0.000854492	0.229305	
15.0277	-0.59375	30.255	4.98413	0.0250244	0.00274658	-0.000915527	12.621	-0.721879	30.1899	0.528324	12.8498	-0.22879	0.00268555	-0.00197754	0.22879	
12.5955	0.03125	30.2444	4.98444	0.022583	0.00366211	0.0454712	12.6224	-0.718427	30.1887	0.528302	12.8499	-0.227485	0.00269775	-0.00187988	0.227485	
12.5955	-2.84375	30.1168	4.98566	0.0250244	0.00274658	-0.0393677	12.6242	-0.715174	30.1875	0.528282	12.8501	-0.225863	0.0026001	-0.00117188	0.225863	
12.5086	-0.59375	30.2657	4.98413	0.0241089	0.00274658	0.00518799	12.6259	-0.71256	30.1864	0.528262	12.8502	-0.224329	0.00262451	-0.00012207	0.224329	
13.5075	0.53125	30.457	4.98169	0.0241089	0.00244141	0.00579834	12.6276	-0.710138	30.1854	0.528244	12.8503	-0.222745	0.00263672	-0.00151367	0.222745	
14.0722	0.0625	30.1381	4.98138	0.0244141	0.00335693	0.0149536	12.6297	-0.707278	30.1845	0.528228	12.8505	-0.220727	0.00262451	-0.00200195	0.220727	
12.1177	-1.09375	30.1487	4.98932	0.0256348	0.00518799	-0.00946045	12.6323	-0.704146	30.1836	0.528214	12.8506	-0.218271	0.00274658	-0.000585937	0.218271	
9.29458	-1.5625	29.9467	4.99573	0.0256348	0.00274658	-0.0100708	12.6343	-0.701259	30.1828	0.528198	12.8507	-0.216363	0.002771	-0.000561523	0.216363	
10.5107	-1.34375	29.968	4.9884	0.0271606	0.00274658	-0.0314331	12.6348	-0.698901	30.1818	0.528181	12.8508	-0.215982	0.00272217	-0.00205078	0.215982	
11.5531	1.03125	30.053	4.99481	0.0241089	0.00152588	0.0222778	12.634	-0.696691	30.1808	0.528163	12.851	-0.216975	0.00272217	-0.00112305	0.216975	
12.0743	-1.21875	30.1593	4.9939	0.0244141	0.00335693	0.0305176	12.6324	-0.694203	30.1797	0.528144	12.8511	-0.218696	0.00299072	-0.00164795	0.218696	
12.0743	-1.03125	30.053	4.99298	0.0241089	0.00274658	0.00640869	12.6305	-0.691749	30.1786	0.528125	12.8512	-0.220789	0.00305176	0.00146484	0.220789	
12.2914	-1.34375	30.3082	4.9942	0.0259399	0.00335693	0.017395	12.6283	-0.689669	30.1775	0.528106	12.8514	-0.223124	0.00302734	-0.00108643	0.223124	
11.5531	-1.46875	30.1912	4.99084	0.0271606	0.0012207	0.0112915	12.6258	-0.688039	30.1765	0.528088	12.8515	-0.225731	0.00299072	-0.000585937	0.225731	
12.4217	-1.0625	30.0849	4.99084	0.0241089	0.00213623	0.0256348	12.623	-0.686868	30.1755	0.528072	12.8516	-0.228663	0.00302734	0.0012207	0.228663	
7.90474	-1.6875	29.9255	4.99939	0.0259399	0.00396729	0.0088501	12.6193	-0.68613	30.1745	0.528054	12.8518	-0.23246	0.00307617	0.000891113	0.23246	
12.5955	-1.6875	30.1806	4.9942	0.0256348	0.00427246	-0.0256348	12.6143	-0.685943	30.1735	0.528036	12.8519	-0.237635	0.00307617	0.00109863	0.237635	
13.3338	-9.28125	30.6165	4.98566	0.0244141	0.00213623	0.0640869	12.6088	-0.687563	30.1725	0.528018	12.852	-0.243249	0.00283203	0.00390625	0.243249	
13.2035	-0.28125	30.5208	4.98932	0.0231934	0.00213623	-0.00274658	12.6038	-0.691884	30.1717	0.528005	12.8521	-0.248327	0.00283203	0.00570068	0.248327	
13.6813	-0.84375	30.4783	4.99207	0.0271606	0.00213623	-0.0601196	12.5995	-0.697283	30.1712	0.527996	12.8522	-0.252731	0.00279541	0.00318604	0.252731	
12.8995	-0.75	30.2869	4.99298	0.0265503	0.00274658	-0.0424194	12.5958	-0.702483	30.1709	0.527991	12.8522	-0.256484	0.00274658	-0.00057373	0.256484	
11.9874	-0.90625	30.3082	4.9939	0.0238037	0.00366211	0.0137329	12.5924	-0.707569	30.1707	0.527987	12.8523	-0.259923	0.00275879	0.000219727	0.259923	
9.46831	-0.6875	30.2869	4.9881	0.0231934	0.00274658	-0.00213623	12.5884	-0.712543	30.1706	0.527985	12.8523	-0.263857	0.00272217	-4.88281E-005	0.263857	
12.8995	-0.3125	30.3082	4.98962	0.0265503	0.00305176	0.0158691	12.5836	-0.717304	30.1705	0.527984	12.8523	-0.268656	0.00273437	0.00032959	0.268656	
12.9429	3.84375	30.5633	4.98962	0.0241089	0.00152588	-0.0326538	12.5787	-0.72106	30.1706	0.527986	12.8523	-0.273601	0.00284424	0.0012207	0.273601	
14.3328	-0.09375	30.5421	4.9826	0.0250244	0.00244141	0.00640869	12.5743	-0.723108	30.1709	0.527991	12.8522	-0.277913	0.00283203	0.00151367	0.277913	
12.5086	-0.875	30.0956	4.98993	0.0262451	0.000915527	-0.0244141	12.5707	-0.724204	30.1713	0.527998	12.8522	-0.281459	0.00272217	-0.00128174	0.281459	
11.5965	-2.28125	32.0943	4.99268	0.0265503	0.0012207	-0.000305176	12.5674	-0.725452	30.1721	0.528012	12.8521	-0.284735	0.00266113	0.000280762	0.284735	
12.248	-1.40625	30.1593	4.99481	0.0241089	-0.000305176	0.0442505	12.5637	-0.727269	30.1734	0.528035	12.8519	-0.28818	0.00253906	0.00184326	0.28818	
14.159	-1.15625	30.2338	4.99054	0.0241089	0.0012207	-0.0149536	12.5602	-0.72954	30.175	0.528062	12.8517	-0.291466	0.00249023	0.00101318	0.291466	
12.5955	-1.59375	30.2231	5.00214	0.0271606	0.00152588	0.0405884	12.5573	-0.732103	30.1765	0.528089	12.8515	-0.294181	0.00241699	0.00203857	0.294181	
12.3349	-3.625	30.2231	4.99054	0.0244141	0.00305176	-0.0570679	12.5547	-0.735359	30.178	0.528115	12.8513	-0.296571	0.00233154	0.000134277	0.296571	
12.7692	-1.03125	30.2444	4.98749	0.0241089	0.00213623	-0.0112915	12.5522	-0.739577	30.1795	0.528142	12.8511	-0.298902	0.00230713	8.54492E-005	0.298902	
11.6399	-1.46875	30.3932	4.98932	0.0247192	0.00213623	0.0354004	12.5497	-0.744299	30.181	0.528168	12.8509	-0.301252	0.00228271	0.00275879	0.301252	
12.248	-0.96875	28.3945	4.98871	0.0280762	0.00274658	-0.0192261	12.5469	-0.74916	30.1823	0.52819	12.8508	-0.303841	0.00233154	0.00109863	0.303841	
11.7268	-1.96875	29.9361	4.99329	0.0265503	0.00488281	0.06073	12.5439	-0.754221	30.1829	0.528201	12.8507	-0.306774	0.00239258	0.00230713	0.306774	
11.249	-1.03125	30.3507	4.98688	0.0210571	0.00152588	-0.0161743	12.5405	-0.759558	30.1832	0.528206	12.8506	-0.310148	0.00234375	0.00140381	0.310148	
21.8032	0.03125	30.4995	4.98138	0.0244141	0.00213623	0.00274658	12.5381	-0.764857	30.1835	0.528212	12.8506	-0.312485	0.00229492	0.000817871	0.312485	
13.4641	1.28125	30.4464	4.97894	0.0238037	0.00152588	-0.0320435	12.5386	-0.769449	30.184	0.528221	12.8505	-0.311901	0.00230713	-0.000915527	0.311901	
13.5944	-0.375	30.2869	4.98138	0.0256348	0.00335693	0.0369263	12.541	-0.773058	30.1847	0.528232	12.8504	-0.30943	0.00235596	-0.000463867	0.30943	
12.8126	-0.53125	30.1168	4.98047	0.0259399	0.00213623	-0.0320435	12.5438	-0.776061	30.1853	0.528243	12.8504	-0.306524	0.00228271	-0.00209961	0.306524	
15.462	-0.46875	30.3294	4.96857	0.0231934	0.00152588	0.0241089	12.5472	-0.778774	30.186	0.528255	12.8503	-0.303019	0.00217285	-0.000109863	0.303019	
12.9864	-0.84375	30.2231	4.98169	0.0253296	-0.000915527	-0.0436401	12.5516	-0.781268	30.1867	0.528267	12.8502	-0.298617	0.00205078	-0.00441895	0.298617	
14.1156	-0.71875	30.3294	4.98077	0.0238037	-0.00213623	0.00457764	12.5566	-0.783635	30.1874	0.528279	12.8501	-0.293533	0.00187988	-0.00412598	0.293533	
6.94922	0.21875	30.4889	4.97375	0.0247192	0.00427246	-0.0119019	12.561	-0.785754	30.1882	0.528293	12.85	-0.288933	0.00196533	-0.00219727	0.288933	
14.3762	-0.625	30.5421	4.96979	0.0247192	0.00335693	-0.0509644	12.5642	-0.787451	30.1891	0.528309	12.8499	-0.28569	0.00198975	-0.00253906	0.28569	
12.9864	3.875	30.2125	4.97589	0.0268555	0.00213623	0.0509644	12.5669	-0.78816	30.1901	0.528327	12.8497	-0.282782	0.00192871	-0.0010498	0.282782	
11.3359	-1.46875	29.9255	4.98108	0.0253296	-0.00488281	-0.0354004	12.5698	-0.787477	30.1912	0.528346	12.8496	-0.279754	0.00162354	-0.00238037	0.279754	
12.6823	-1.3125	29.5746	4.97955	0.0262451	0.00274658	-0.0012207	12.5723	-0.786387	30.192	0.52836	12.8495	-0.277155	0.00161133	-0.00306396	0.277155	
12.5086	-0.71875	27.055	4.97925	0.0241089	0.00183105	-0.00854492	12.5746	-0.785594	30.1921	0.528361	12.8495	-0.274909	0.00162354	-0.00209961	0.274909	
12.5955	-0.8125	30.0849	4.97833	0.0256348	0.00396729	0.0195313	12.5767	-0.784894	30.1911	0.528344	12.8496	-0.272884	0.00168457	-0.00157471	0.272884	
16.9387	-1.0625	30.1168	4.97589	0.0265503	0.00213623	-0.0164795	12.5795	-0.78426	30.1895	0.528317	12.8498	-0.270328	0.0017334	-0.00125732	0.270328	
12.5955	-0.5	30.1168	4.97833	0.0241089	0.00274658	0.0454712	12.5835	-0.783694	30.188	0.528291	12.85	-0.26651	0.00179443	0.00057373	0.26651	
12.6823	-1.46875	30.2019	4.97467	0.0234985	0.00152588	-0.0494385	12.5881	-0.78321	30.1866	0.528265	12.8502	-0.262134	0.00186768	-0.00317383	0.262134	
11.9874	-1.5	29.7128	4.97742	0.0271606	0.00274658	-0.0204468	12.5924	-0.783022	30.185	0.528238	12.8504	-0.257985	0.00192871	-0.00339355	0.257985	
11.5965	-1.53125	29.9573	4.97681	0.0259399	0.00213623	0.0112915	12.5963	-0.783287	30.1834	0.52821	12.8506	-0.254332	0.00195313	-0.00456543	0.254332	
13.2035	-0.78125	32.0624	4.97223	0.0250244	0.00213623	-0.0582886	12.5997	-0.783884	30.182	0.528185	12.8508	-0.251098	0.0019165	-0.00461426	0.251098	
14.7237	0.3125	30.3932	4.96582	0.0265503	0.00152588	-0.00823975	12.6034	-0.784406	30.1812	0.528171	12.8509	-0.247539	0.00189209	-0.00449219	0.247539	
12.3783	0.03125	30.2869	4.96796	0.0253296	0.0012207	-0.0256348	12.6076	-0.784443	30.1808	0.528164	12.851	-0.24334	0.00185547	-0.00693359	0.24334	
7.73101	-0.09375	29.9892	4.97375	0.0256348	0.00396729	-0.00579834	12.6112	-0.783947	30.1804	0.528157	12.851	-0.239782	0.0019043	-0.00639648	0.239782	
12.7692	-0.71875	30.2019	4.9707	0.0231934	0.00213623	-0.00427246	12.6132	-0.783119	30.18	0.528151	12.851	-0.237879	0.00179443	-0.00899658	0.237879	
13.4207	-0.5	30.0956	4.97345	0.0286865	0.00366211	0.0112915	12.6145	-0.782148	30.1796	0.528144	12.8511	-0.236631	0.00187988	-0.00789795	0.236631	
12.9429	-0.46875	30.1168	4.97345	0.0256348	0.00213623	0.0231934	12.616	-0.781065	30.1792	0.528136	12.8512	-0.235106	0.00187988	-0.00708008	0.235106	
13.2035	-0.625	29.2025	4.97284	0.0234985	0.00274658	0.00823975	12.6179	-0.779855	30.1786	0.528126	12.8512	-0.23334	0.00192871	-0.00546875	0.23334	
13.7247	0.15625	30.2763	4.97101	0.0216675	0.00366211	0.00213623	12.6201	-0.778446	30.1778	0.528111	12.8513	-0.231272	0.00194092	-0.00686035	0.231272	
14.854	0.46875	30.3932	4.96704	0.0256348	0.00366211	-0.0143433	12.623	-0.776579	30.1769	0.528095	12.8515	-0.228507	0.00200195	-0.00615234	0.228507	
21.7163	-0.65625	30.0743	4.96826	0.0256348	0.00213623	-0.0231934	12.628	-0.774227	30.176	0.528081	12.8516	-0.223556	0.00202637	-0.00804443	0.223556	
11.4662	-0.78125	29.8617	4.97711	0.0250244	0.00274658	0.0915527	12.6359	-0.771729	30.1752	0.528066	12.8517	-0.215799	0.00217285	-0.00263672	0.215799	
12.3349	-9.78125	29.9467	4.97955	0.0247192	0.00305176	-0.0112915	12.6445	-0.770701	30.1742	0.528049	12.8518	-0.207334	0.00238037	-0.00327148	0.207334	
12.5955	-0.8125	30.053	4.97711	0.0241089	0.00305176	0.0109863	12.6525	-0.772514	30.1732	0.52803	12.8519	-0.199468	0.00233154	-0.00235596	0.199468	
12.5086	-0.625	30.5846	4.97406	0.0238037	0.0012207	-0.0384521	12.6601	-0.775649	30.1721	0.528012	12.8521	-0.191968	0.00224609	-0.00185547	0.191968	
12.5955	-0.90625	30.0424	4.97345	0.0234985	0.00152588	-0.0012207	12.6674	-0.778655	30.1712	0.527996	12.8522	-0.184785	0.00222168	-0.00394287	0.184785	
12.5955	-0.875	30.0743	4.97467	0.0259399	0.00854492	-0.017395	12.6744	-0.781587	30.1704	0.527981	12.8523	-0.177909	0.00275879	-0.00322266	0.177909	
9.64204	-1.09375	30.053	4.97345	0.0241089	0.00152588	0.00640869	12.6806	-0.784512	30.1694	0.527965	12.8524	-0.17179	0.00270996	-0.00291748	0.17179	
11.5965	-0.59375	29.9467	4.9826	0.0271606	0.00274658	-0.0378418	12.6855	-0.787416	30.1685	0.527949	12.8526	-0.16702	0.00274658	-0.00408936	0.16702	
11.1188	2.78125	29.851	4.9826	0.0256348	0.00396729	0.065918	12.6892	-0.789653	30.1674	0.52793	12.8527	-0.163488	0.00274658	-0.00223389	0.163488	
13.1601	-0.59375	30.1487	4.97528	0.0234985	0.00335693	-0.00610352	12.6922	-0.790642	30.1663	0.52791	12.8529	-0.160681	0.00279541	-0.00181885	0.160681	
14.2459	0.6875	30.372	4.97101	0.0244141	0.00366211	0.0296021	12.6952	-0.790752	30.1651	0.52789	12.853	-0.157832	0.00283203	-0.00245361	0.157832	
12.6823	-0.59375	30.5421	4.97406	0.0268555	0.00335693	-0.0216675	12.6986	-0.790339	30.1641	0.527872	12.8531	-0.154516	0.00290527	-0.00134277	0.154516	
12.3349	-0.21875	30.3082	4.97589	0.0247192	-0.00305176	-0.0253296	12.7021	-0.789561	30.1634	0.527859	12.8532	-0.151114	0.00267334	-0.00153809	0.151114	
13.9853	-0.53125	30.1912	4.97681	0.0247192	0.0012207	-0.00579834	12.7056	-0.788563	30.1627	0.527848	12.8533	-0.147736	0.00263672	-0.00222168	0.147736	
12.7692	-0.84375	30.1806	4.98474	0.0268555	0.00366211	-0.0128174	12.7093	-0.78744	30.1621	0.527837	12.8534	-0.144121	0.00269775	-0.000402832	0.144121	
12.7692	-1.21875	30.1806	4.97772	0.0265503	0.00213623	-0.0189209	12.7131	-0.7864	30.1616	0.527828	12.8535	-0.140405	0.00272217	-0.000830078	0.140405	
13.9853	-0.59375	30.1806	4.97284	0.0250244	0.00213623	0.0482178	12.7169	-0.78551	30.1611	0.527819	12.8535	-0.136593	0.00275879	0.00212402	0.136593	
13.5075	-0.03125	30.3294	4.97955	0.0231934	0.00366211	0.017395	12.7212	-0.784542	30.1606	0.52781	12.8536	-0.132386	0.00274658	0.00305176	0.132386	
13.3772	0.46875	31.3075	4.97467	0.0253296	0.00213623	-0.0473022	12.7259	-0.78315	30.1604	0.527807	12.8536	-0.127753	0.00274658	0.00133057	0.127753	
12.3783	-0.78125	30.0424	4.98352	0.0256348	0.00640869	-0.00823975	12.7306	-0.781302	30.1605	0.527809	12.8536	-0.122965	0.00285645	0.000549316	0.122965	
10.1198	-1.46875	29.8191	4.98749	0.0256348	0.00366211	0.00854492	12.7348	-0.77943	30.1608	0.527814	12.8536	-0.118746	0.00291748	-3.66211E-005	0.118746	
11.3359	-1.53125	30.0424	4.99329	0.0241089	0.0012207	-0.00305176	12.7378	-0.777955	30.1609	0.527815	12.8536	-0.115778	0.00285645	-0.000488281	0.115778	
12.248	-2	31.9454	4.98718	0.0247192	0.00396729	0.0088501	12.7397	-0.777061	30.1611	0.52782	12.8535	-0.113805	0.00286865	-0.000219727	0.113805	
11.7702	-0.96875	30.1487	4.98444	0.0241089	0.00213623	-0.00946045	12.7411	-0.776725	30.1619	0.527834	12.8534	-0.112353	0.00280762	-2.44141E-005	0.112353	
12.1177	-1.21875	30.0318	4.99084	0.0238037	0.00213623	0.00274658	12.7419	-0.776719	30.1629	0.527852	12.8533	-0.111392	0.00280762	0.00101318	0.111392	
12.5955	-0.875	28.8729	4.98749	0.0228882	0.00335693	-0.0259399	12.7423	-0.776895	30.1637	0.527864	12.8532	-0.110864	0.00283203	-0.00368652	0.110864	
12.2914	-0.96875	30.053	4.98657	0.0274658	0.000305176	0.00488281	12.7425	-0.777194	30.164	0.527869	12.8532	-0.110625	0.00272217	-0.00303955	0.110625	
11.3793	-0.65625	30.0743	4.99023	0.0247192	0.00152588	-0.0265503	12.7424	-0.777538	30.164	0.52787	12.8532	-0.1108	0.00266113	-0.00454102	0.1108	
14.3328	-1.71875	29.9361	4.99329	0.0247192	0.00213623	-0.00213623	12.7419	-0.778008	30.1639	0.527869	12.8532	-0.111226	0.00269775	-0.00308838	0.111226	
11.9874	-0.53125	30.2125	4.98932	0.0265503	0.00305176	0.00427246	12.7417	-0.778697	30.1638	0.527866	12.8532	-0.111483	0.00275879	-0.00286865	0.111483	
13.6813	0.0625	30.4677	4.98322	0.0241089	0.00274658	-0.00946045	12.7416	-0.7793	30.1637	0.527864	12.8532	-0.111568	0.00252686	-0.00255127	0.111568	
13.1167	-0.625	30.4358	4.98718	0.0247192	0.00183105	0.00854492	12.7418	-0.779558	30.1637	0.527865	12.8532	-0.111399	0.00253906	-0.00246582	0.111399	
13.855	-0.46875	31.0418	4.98779	0.0244141	0.0012207	-0.00610352	12.7424	-0.779581	30.164	0.52787	12.8531	-0.110765	0.00247803	-0.00119629	0.110765	
12.5955	-0.6875	30.255	4.98749	0.0262451	0.00274658	0.0131226	12.7433	-0.779468	30.1646	0.527881	12.8531	-0.10973	0.0024292	-0.00330811	0.10973	
12.552	-0.84375	30.2444	4.99237	0.0256348	0.010376	0.0109863	12.7444	-0.779292	30.1654	0.527895	12.853	-0.108611	0.00270996	-0.00262451	0.108611	
6.03713	-1.03125	30.2231	4.98962	0.0222778	0.00152588	-0.0186157	12.7442	-0.779167	30.1662	0.527909	12.8529	-0.108649	0.00262451	-0.00455322	0.108649	
12.9429	-0.6875	30.2657	4.99146	0.022583	0.00274658	-0.00854492	12.742	-0.779121	30.167	0.527923	12.8528	-0.110759	0.0026001	-0.00402832	0.110759	
13.4641	3.71875	30.372	4.99115	0.0250244	0.00244141	-0.0326538	12.739	-0.778389	30.1679	0.527938	12.8526	-0.113653	0.00281982	-0.00432129	0.113653	
13.7681	-0.34375	30.5633	4.98505	0.0268555	0.00213623	-0.0305176	12.7365	-0.776206	30.1689	0.527955	12.8525	-0.11601	0.00285645	-0.00531006	0.11601	
12.1177	-1.34375	29.968	4.99084	0.0216675	0.0012207	0.0131226	12.7344	-0.773355	30.1699	0.527974	12.8524	-0.117932	0.00275879	-0.00427246	0.117932	
10.945	-1.53125	28.0331	4.99634	0.0234985	0.00152588	-0.00610352	12.7321	-0.770832	30.1706	0.527986	12.8523	-0.120139	0.00273437	-0.00375977	0.120139	
11.8137	-1.28125	29.9786	4.99725	0.0271606	-0.00183105	0.0143433	12.7291	-0.768801	30.1706	0.527985	12.8523	-0.123157	0.00257568	-0.00511475	0.123157	
15.5489	-0.65625	30.0424	4.9942	0.0262451	0.00152588	0.0265503	12.7261	-0.7671	30.1701	0.527977	12.8524	-0.126246	0.00249023	-0.00474854	0.126246	
11.6834	-0.84375	30.17	4.99268	0.0238037	0.00274658	0.0320435	12.7238	-0.765517	30.1696	0.527968	12.8524	-0.128665	0.00251465	-0.00157471	0.128665	
11.8137	-4.625	30.2444	4.9939	0.0259399	0.00274658	-0.0723267	12.7215	-0.764595	30.1691	0.527959	12.8525	-0.131025	0.00236816	-0.00413818	0.131025	
12.1611	-1.21875	30.3082	4.9942	0.0259399	0.00213623	0.0119019	12.7187	-0.764985	30.1686	0.527951	12.8525	-0.133827	0.00230713	-0.00400391	0.133827	
12.5955	-1.3125	30.457	4.99298	0.0259399	0.00213623	0.00366211	12.7157	-0.766187	30.1683	0.527945	12.8526	-0.13685	0.00234375	-0.00373535	0.13685	
12.0743	-1.46875	30.5846	4.9942	0.0274658	0.00213623	0.0201416	12.7126	-0.767695	30.1681	0.527942	12.8526	-0.139968	0.00227051	-0.00328369	0.139968	
10.7279	-1.90625	29.968	4.99634	0.0256348	0.00274658	-0.0408936	12.7091	-0.76963	30.1681	0.527942	12.8526	-0.143482	0.00229492	-0.00454102	0.143482	
10.3804	-0.96875	30.2869	4.98932	0.0268555	0.00213623	-0.038147	12.7047	-0.771989	30.1682	0.527943	12.8526	-0.147945	0.00229492	-0.00617676	0.147945	
9.33801	-0.0625	30.4995	4.9823	0.0262451	0.00305176	-0.0308228	12.6988	-0.774392	30.1682	0.527944	12.8526	-0.153796	0.00228271	-0.00637207	0.153796	
13.5944	1.65625	30.372	4.98749	0.0247192	0.00213623	0.0167847	12.6919	-0.776144	30.1685	0.527948	12.8526	-0.160685	0.00235596	-0.005896	0.160685	
12.3349	-0.53125	30.3932	4.9881	0.0250244	0.000915527	0.000305176	12.6849	-0.776931	30.1688	0.527955	12.8525	-0.16761	0.00233154	-0.00482178	0.16761	
12.552	-0.625	30.1806	4.99054	0.0256348	0.00305176	0.020752	12.6782	-0.777213	30.1693	0.527963	12.8525	-0.174268	0.00236816	-0.00390625	0.174268	
13.2035	-1.03125	29.766	4.98901	0.0256348	0.00396729	0.0234985	12.6717	-0.777439	30.1697	0.52797	12.8524	-0.180707	0.00240479	-0.00313721	0.180707	
12.6823	-0.8125	30.3613	4.98871	0.0247192	0.00335693	0.0158691	12.6656	-0.777718	30.17	0.527976	12.8524	-0.186785	0.0024292	-0.00212402	0.186785	
13.9853	-0.875	30.3294	4.98352	0.0222778	0.00274658	-0.0326538	12.66	-0.778053	30.1704	0.527981	12.8523	-0.192355	0.00246582	-0.00377197	0.192355	
22.9324	0.09375	30.4889	4.99115	0.0234985	0.00366211	0.0250244	12.6566	-0.778276	30.1708	0.527989	12.8523	-0.195706	0.00256348	-0.00252686	0.195706	
14.3328	-0.34375	30.6271	4.97894	0.0234985	0.00213623	0.00457764	12.6569	-0.778168	30.1714	0.528	12.8522	-0.195259	0.00253906	-0.00286865	0.195259	
13.1167	-9.09375	30.255	4.98444	0.0247192	0.00213623	0.0268555	12.6595	-0.779084	30.1722	0.528014	12.8521	-0.192615	0.00220947	-0.00223389	0.192615	
10.8582	-1.71875	29.968	4.99023	0.0250244	0.00152588	-0.0247192	12.662	-0.782627	30.1731	0.528029	12.852	-0.189933	0.00220947	-0.00247803	0.189933	
12.8126	-1.125	30.0318	4.98352	0.0247192	0.00335693	0.0216675	12.664	-0.787678	30.1738	0.528041	12.8519	-0.18782	0.00223389	-0.00126953	0.18782	
11.6834	-1.21875	30.2019	4.98566	0.0247192	0.0012207	-0.00701904	12.6656	-0.792869	30.1744	0.528053	12.8518	-0.186177	0.00218506	-0.000244141	0.186177	
11.8571	-1.0625	30.17	4.98199	0.0222778	0.00488281	-0.0286865	12.6667	-0.798105	30.175	0.528063	12.8517	-0.185	0.00229492	-0.000170898	0.185	
9.33801	-1.28125	30.1062	4.98047	0.0283813	0.00366211	0.0466919	12.6668	-0.80338	30.1756	0.528073	12.8516	-0.184786	0.00239258	0.00117188	0.184786	
12.3783	-0.34375	30.2657	4.98077	0.0259399	0.000305176	-0.0219727	12.6658	-0.808588	30.1761	0.528083	12.8516	-0.185783	0.00234375	0.000537109	0.185783	
12.6389	4.28125	30.0956	4.9826	0.0259399	0.00152588	0.0369263	12.6641	-0.812753	30.1767	0.528092	12.8515	-0.187355	0.00247803	0.00144043	0.187355	
11.9874	-1.21875	30.0211	4.98169	0.027771	0.00457764	0.0152588	12.6624	-0.815182	30.1772	0.5281	12.8514	-0.189034	0.0026001	0.00098877	0.189034	
11.944	-1.375	29.5427	4.98444	0.0262451	0.00274658	0.0012207	12.6604	-0.816948	30.1775	0.528105	12.8514	-0.191	0.0026001	-0.000244141	0.191	
12.6823	-0.4375	31.9561	4.97772	0.0253296	0.00213623	0.0402832	12.6581	-0.818829	30.1778	0.528111	12.8513	-0.193213	0.00257568	0.00426025	0.193213	
14.5065	-0.375	30.4145	4.96979	0.0216675	-0.00183105	-0.0741577	12.6561	-0.820544	30.1786	0.528126	12.8512	-0.195101	0.00241699	0.000817871	0.195101	
16.8519	0.125	30.2444	4.97437	0.0259399	0.00305176	0.0378418	12.6554	-0.821854	30.1798	0.528146	12.8511	-0.195647	0.00245361	0.00218506	0.195647	
13.4641	-0.90625	30.3294	4.97772	0.0247192	0.00640869	0.0088501	12.6565	-0.822768	30.181	0.528167	12.8509	-0.194448	0.00262451	0.0017334	0.194448	
12.9864	-3.21875	30.1168	4.97711	0.0256348	0	-0.0302124	12.6584	-0.823901	30.1822	0.528188	12.8508	-0.192333	0.00251465	0.00216064	0.192333	
12.9864	-0.4375	30.2231	4.97528	0.0241089	0.00213623	-0.032959	12.6606	-0.82569	30.1833	0.528208	12.8506	-0.190012	0.00251465	0.00236816	0.190012	
12.6823	-0.78125	30.4251	4.97742	0.0247192	0.00274658	0.0387573	12.6629	-0.827661	30.1845	0.528228	12.8505	-0.187613	0.00250244	0.00515137	0.187613	
13.3338	0.375	30.2231	4.97772	0.0247192	0.00457764	0.0012207	12.6652	-0.829302	30.1857	0.52825	12.8503	-0.185126	0.0026001	0.00452881	0.185126	
14.3328	0.375	30.4464	4.97253	0.0259399	0.00518799	-0.0286865	12.6679	-0.830317	30.1869	0.528271	12.8501	-0.182245	0.002771	0.00336914	0.182245	
12.6823	0.125	30.5102	4.9649	0.0234985	0.000305176	0.00396729	12.6711	-0.830587	30.1883	0.528295	12.85	-0.178824	0.00266113	0.00269775	0.178824	
21.7597	-0.375	30.1381	4.9649	0.0253296	0.00213623	-0.0430298	12.6759	-0.830294	30.1897	0.52832	12.8498	-0.173834	0.00258789	3.66211E-005	0.173834	
11.5531	-0.78125	29.8617	4.9765	0.0247192	0.00213623	0.0158691	12.6832	-0.829714	30.1911	0.528344	12.8496	-0.166376	0.00253906	3.66211E-005	0.166376	
12.552	-0.4375	29.8617	4.97742	0.027771	0.00305176	0.0436401	12.6913	-0.829008	30.1922	0.528364	12.8494	-0.158162	0.00255127	0.00308838	0.158162	
11.8137	-0.3125	29.8617	4.97375	0.0234985	0.0012207	-0.00488281	12.6987	-0.828117	30.1932	0.52838	12.8493	-0.150617	0.00245361	0.00189209	0.150617	
13.3772	-0.59375	30.0318	4.97528	0.0231934	0.00213623	0.0332642	12.7057	-0.827001	30.1939	0.528392	12.8492	-0.143552	0.00245361	0.00303955	0.143552	
12.8126	-0.65625	29.9467	4.97406	0.0271606	0.00213623	-0.0350952	12.7125	-0.825744	30.1944	0.528402	12.8492	-0.136665	0.00245361	0.000561523	0.136665	
12.9429	-0.84375	30.1062	4.9765	0.0253296	-0.00518799	-0.0186157	12.7192	-0.824446	30.1948	0.528409	12.8491	-0.129864	0.00218506	0.000805664	0.129864	
10.641	-0.59375	30.1168	4.97314	0.0265503	0.0012207	0.032959	12.7255	-0.823138	30.1951	0.528414	12.8491	-0.12355	0.00209961	0.00125732	0.12355	
11.9005	-1.34375	30.0318	4.97711	0.0247192	0.00335693	0.00457764	12.7308	-0.821888	30.1953	0.528418	12.849	-0.118205	0.00218506	0.00172119	0.118205	
11.1622	2.53125	29.766	4.9826	0.0259399	0.00305176	-0.0411987	12.7351	-0.820287	30.1954	0.52842	12.849	-0.113889	0.00211182	0.0012207	0.113889	
12.3349	-0.71875	30.2231	4.97345	0.0259399	0.00274658	0.0247192	12.7386	-0.817769	30.1954	0.528419	12.849	-0.110424	0.0020752	0.000341797	0.110424	
13.8116	0.15625	30.7122	4.96948	0.0219727	0.000610352	-0.0384521	12.7418	-0.814636	30.1953	0.528418	12.849	-0.10728	0.0020874	-0.000317383	0.10728	
13.5944	0.46875	27.2251	4.9704	0.0256348	0.00518799	0.00427246	12.7452	-0.811098	30.195	0.528412	12.8491	-0.103884	0.00223389	-0.00162354	0.103884	
12.6389	-0.5	30.372	4.97101	0.0262451	0.0088501	0.0305176	12.7489	-0.807088	30.1939	0.528393	12.8492	-0.100301	0.00240479	-0.00101318	0.100301	
10.5107	-0.78125	30.2657	4.97131	0.0241089	0.00213623	-0.0271606	12.7523	-0.802921	30.1924	0.528367	12.8494	-0.0971453	0.00238037	-0.00214844	0.0971453	
12.7258	-0.3125	30.1274	4.97681	0.0247192	0.00396729	0.017395	12.7548	-0.798769	30.191	0.528342	12.8496	-0.0948115	0.00245361	-0.00306396	0.0948115	
13.0732	-0.1875	30.1168	4.97772	0.0274658	0.00213623	-0.0784302	12.7569	-0.794514	30.1896	0.528318	12.8498	-0.0928695	0.0026123	-0.00323486	0.0928695	
12.8126	-0.6875	30.2231	4.97467	0.0241089	0.00274658	-0.0311279	12.7591	-0.790128	30.1883	0.528295	12.85	-0.0908969	0.0026001	-0.00599365	0.0908969	
13.2904	-0.28125	30.5846	4.97467	0.0210571	0.00305176	0.0134277	12.7613	-0.785691	30.187	0.528273	12.8501	-0.0888374	0.00246582	-0.00581055	0.0888374	
14.159	1.03125	32.2006	4.96979	0.0247192	0.00183105	-0.0543213	12.7638	-0.780955	30.1863	0.52826	12.8502	-0.0864029	0.00253906	-0.0067749	0.0864029	
12.6823	-1.28125	30.0424	4.97406	0.0283813	-0.00213623	0.0186157	12.7668	-0.775822	30.1862	0.528259	12.8502	-0.0834643	0.00236816	-0.00471191	0.0834643	
14.0287	-1.6875	29.8085	4.98047	0.0256348	0.00457764	0.0134277	12.77	-0.770887	30.1864	0.528261	12.8502	-0.0802152	0.00244141	-0.0057251	0.0802152	
8.59966	-1.59375	29.9786	4.9704	0.0262451	0.00274658	-0.017395	12.7729	-0.766615	30.1863	0.528261	12.8502	-0.0773722	0.00236816	-0.00646973	0.0773722	
11.7268	-3.1875	29.8723	4.98169	0.0234985	0.00701904	0.0149536	12.7743	-0.763267	30.1861	0.528257	12.8502	-0.0759133	0.00244141	-0.00472412	0.0759133	
12.0308	-0.625	30.0743	4.98077	0.0265503	0.00152588	-0.0231934	12.7747	-0.760896	30.1858	0.528251	12.8503	-0.0756128	0.00249023	-0.00581055	0.0756128	
12.2914	-0.875	30.2019	4.98596	0.0271606	0.00366211	0.0509644	12.7745	-0.75896	30.1854	0.528244	12.8503	-0.0758018	0.00255127	-0.00205078	0.0758018	
12.3349	-0.9375	29.9042	4.98047	0.0231934	0.00274658	0.0442505	12.7741	-0.757134	30.1849	0.528236	12.8504	-0.076325	0.00257568	-0.000915527	0.076325	
12.4217	-5.8125	30.0743	4.97925	0.0241089	0.00335693	-0.0866699	12.7734	-0.756231	30.1844	0.528227	12.8505	-0.0771091	0.00258789	-0.00612793	0.0771091	
11.6834	-1.78125	29.8829	4.98932	0.0262451	0.00213623	0.00518799	12.7723	-0.757115	30.1838	0.528216	12.8506	-0.0782283	0.00262451	-0.0057251	0.0782283	
11.6399	-1.78125	29.9042	4.96735	0.0265503	0.00335693	0.0265503	12.7708	-0.759229	30.183	0.528202	12.8507	-0.0798967	0.00267334	-0.00599365	0.0798967	
12.6389	0.84375	30.1593	4.98566	0.0244141	0.00396729	0.0152588	12.7687	-0.761497	30.1821	0.528187	12.8508	-0.0820647	0.00274658	-0.00397949	0.0820647	
14.0722	0.53125	30.3826	4.97955	0.0250244	0.00274658	-0.0537109	12.7667	-0.763145	30.1812	0.528172	12.8509	-0.0841728	0.00306396	-0.0053833	0.0841728	
12.4217	0.03125	30.2976	4.98322	0.0234985	0.00305176	0.0128174	12.7651	-0.763961	30.1805	0.528158	12.851	-0.0858653	0.00313721	-0.00618896	0.0858653	
-0.0434326	-0.375	30.2657	4.97131	0.0256348	0.00366211	-0.00488281	12.7617	-0.764241	30.1798	0.528147	12.8511	-0.0893792	0.00314941	-0.00656738	0.0893792	
12.9864	-0.5625	30.2657	4.98749	0.0216675	0.00152588	0.0161743	12.7544	-0.764235	30.1792	0.528137	12.8512	-0.0967539	0.00308838	-0.00427246	0.0967539	
12.552	-1.28125	30.0956	4.99146	0.0256348	0.00518799	0.0372314	12.7454	-0.764187	30.1787	0.528127	12.8512	-0.105813	0.00318604	-0.00377197	0.105813	
18.5023	-0.34375	30.2231	4.99146	0.0247192	0.00244141	-0.0531006	12.7376	-0.764204	30.1782	0.528118	12.8513	-0.113685	0.00325928	-0.00435791	0.113685	
12.248	-2.03125	30.2231	4.99084	0.0247192	0.00213623	0.0241089	12.7318	-0.764367	30.1777	0.52811	12.8514	-0.119597	0.00313721	-0.00356445	0.119597	
12.8126	-8.53125	30.4145	4.98688	0.0216675	0.00244141	-0.0378418	12.7269	-0.766057	30.1773	0.528103	12.8514	-0.124538	0.00288086	-0.00629883	0.124538	
12.8126	0.21875	30.6378	4.9826	0.0247192	0.00335693	-0.0491333	12.7221	-0.770142	30.1771	0.528098	12.8514	-0.12932	0.00292969	-0.00717773	0.12932	
10.6844	-0.90625	30.5102	4.9884	0.0265503	0.00213623	-0.0106812	12.7173	-0.775002	30.177	0.528098	12.8514	-0.134179	0.00285645	-0.00830078	0.134179	
10.1198	-1.6875	29.9361	4.99481	0.0259399	0.0012207	0.00213623	12.7116	-0.77972	30.1772	0.528101	12.8514	-0.13987	0.00281982	-0.00507813	0.13987	
11.8137	-1.1875	30.1593	4.9939	0.0244141	-0.00183105	0.0460815	12.7048	-0.784638	30.1773	0.528102	12.8514	-0.146623	0.00263672	-0.00198975	0.146623	
9.81577	-1.03125	30.3082	4.99023	0.0241089	0.0012207	0.0109863	12.6971	-0.789688	30.1774	0.528104	12.8514	-0.154269	0.00256348	-0.0020874	0.154269	
12.1177	-0.28125	30.1806	4.99481	0.0247192	0.0012207	-0.0158691	12.6886	-0.794619	30.1775	0.528106	12.8514	-0.162764	0.00253906	-0.000549316	0.162764	
11.6399	1.84375	30.2019	4.99176	0.0256348	0.00366211	0.0469971	12.6796	-0.798846	30.1776	0.528108	12.8514	-0.171744	0.002771	0.000585937	0.171744	
12.1177	-1.375	30.2019	4.9939	0.0265503	0.00213623	-0.0265503	12.6704	-0.802115	30.1777	0.52811	12.8514	-0.180907	0.00267334	-0.00101318	0.180907	
12.2046	-1.28125	30.0637	4.99359	0.0241089	0.00274658	0.0314331	12.6612	-0.805111	30.1779	0.528113	12.8513	-0.190154	0.00267334	0.000939941	0.190154	
11.8137	-1.65625	31.9242	4.99542	0.027771	0.00396729	0.00762939	12.6519	-0.80837	30.1782	0.528119	12.8513	-0.199404	0.00255127	0.000646973	0.199404	
11.6399	-2.09375	29.9042	4.99542	0.0247192	0	0.0360107	12.6424	-0.812052	30.1791	0.528133	12.8512	-0.208754	0.00249023	0.00301514	0.208754	
14.5065	-1.0625	30.3613	4.99115	0.0238037	0.00152588	-0.0466919	12.6331	-0.816172	30.1801	0.528151	12.851	-0.2179	0.00240479	-0.000891113	0.2179	
13.8984	-0.21875	30.5846	4.98199	0.0280762	0.00213623	-0.0378418	12.6248	-0.820331	30.1811	0.52817	12.8509	-0.226093	0.00238037	-0.0041748	0.226093	
13.4207	-2.84375	30.3401	4.98749	0.0259399	0.00213623	0.00213623	12.6176	-0.824509	30.1823	0.528191	12.8507	-0.233166	0.00233154	-0.000622559	0.233166	
12.5086	-0.65625	30.5314	4.98871	0.0234985	0.00213623	-0.00579834	12.611	-0.829048	30.1836	0.528214	12.8506	-0.23954	0.00233154	-0.00106201	0.23954	
13.1601	-1.40625	30.3188	4.99146	0.0250244	0.00274658	-0.0183105	12.6049	-0.833777	30.1851	0.528239	12.8504	-0.245491	0.00230713	-0.00285645	0.245491	
12.7692	-1.1875	28.4052	4.98901	0.0268555	0.00274658	0.00274658	12.5992	-0.838545	30.1863	0.52826	12.8502	-0.251076	0.0022583	-0.00335693	0.251076	
12.5086	-0.90625	30.2869	4.98749	0.0247192	0.00488281	0.0320435	12.5937	-0.843354	30.1869	0.528271	12.8501	-0.256408	0.00234375	7.32422E-005	0.256408	
12.7692	-0.84375	30.4464	4.98932	0.0234985	0.000915527	-0.015564	12.5885	-0.848068	30.1873	0.528278	12.8501	-0.261552	0.0022583	-0.00106201	0.261552	
22.8456	-0.46875	30.457	4.98596	0.0241089	0.00274658	0.00152588	12.5852	-0.852566	30.1879	0.528287	12.85	-0.264864	0.00222168	-0.000805664	0.264864	
14.1156	1.71875	30.7547	4.98199	0.0250244	0.00213623	-0.045166	12.5853	-0.856388	30.1886	0.5283	12.8499	-0.264583	0.00224609	-0.00325928	0.264583	
13.2469	-1.53125	30.1912	4.98505	0.0259399	0.00152588	0.032959	12.5877	-0.859322	30.1895	0.528316	12.8498	-0.262113	0.00209961	-0.00343018	0.262113	
11.4228	-1.6875	29.8829	4.98871	0.0231934	0.0012207	-0.0491333	12.5902	-0.86209	30.1904	0.528333	12.8497	-0.259463	0.00205078	-0.00327148	0.259463	
12.5086	-1.28125	30.457	4.9826	0.0234985	0.000305176	-0.0247192	12.5924	-0.865187	30.1913	0.528347	12.8496	-0.257187	0.00197754	-0.00522461	0.257187	
12.7692	-1.03125	30.2019	4.98322	0.0259399	0.0012207	-0.0222778	12.5943	-0.868457	30.1921	0.528362	12.8495	-0.255164	0.00192871	-0.00460205	0.255164	
13.8116	-1.09375	30.1381	4.98566	0.0271606	0.00427246	-0.00396729	12.5964	-0.871764	30.193	0.528377	12.8494	-0.252978	0.00196533	-0.00279541	0.252978	
3.95237	-0.9375	30.2019	4.98535	0.0247192	0.00366211	0.0234985	12.5974	-0.875058	30.1938	0.528391	12.8492	-0.251808	0.00202637	-0.00142822	0.251808	
13.1601	-1.40625	30.2763	4.98566	0.0253296	0.00305176	0.0112915	12.5961	-0.878373	30.1946	0.528405	12.8491	-0.253084	0.00209961	-0.00106201	0.253084	
11.944	-0.34375	30.3826	4.98322	0.0256348	0.00274658	0.0820923	12.5935	-0.881663	30.1954	0.528419	12.849	-0.255576	0.00228271	0.000378418	0.255576	
11.6834	-1.375	29.968	4.9942	0.0265503	-0.00549316	-0.0100708	12.5907	-0.884828	30.1962	0.528434	12.8489	-0.25823	0.00201416	-0.000463867	0.25823	
11.3359	-2.09375	29.447	4.98413	0.0253296	0.00213623	0.0100708	12.5875	-0.888139	30.1969	0.528445	12.8488	-0.26139	0.00205078	0.00057373	0.26139	
12.8561	-0.84375	28.6603	4.98199	0.0234985	0.00366211	0.0204468	12.5838	-0.891777	30.197	0.528447	12.8488	-0.264992	0.00205078	-0.000488281	0.264992	
13.8116	0.40625	30.4995	4.97009	0.0253296	0.00549316	-0.00457764	12.5804	-0.895258	30.1965	0.528439	12.8489	-0.268459	0.00218506	0.000390625	0.268459	
15.7226	-0.375	30.457	4.97437	0.0256348	0.00152588	-0.0311279	12.578	-0.898124	30.196	0.52843	12.849	-0.270907	0.00213623	-0.00211182	0.270907	
13.3772	-0.46875	30.372	4.97833	0.0238037	0.00305176	-0.0460815	12.577	-0.90046	30.1956	0.528424	12.849	-0.271957	0.00209961	-0.00426025	0.271957	
13.8116	-3.8125	30.1806	4.97589	0.0262451	0.00274658	-0.039978	12.577	-0.90295	30.1954	0.528419	12.849	-0.27203	0.00220947	-0.0072998	0.27203	
12.8126	-0.59375	30.4358	4.97681	0.0259399	0.00213623	-0.0134277	12.5775	-0.906141	30.1952	0.528416	12.8491	-0.27155	0.00223389	-0.00596924	0.27155	
13.2035	-1.0625	30.255	4.97711	0.0247192	0.00152588	-0.0143433	12.5784	-0.909598	30.1951	0.528414	12.8491	-0.270713	0.00220947	-0.0050293	0.270713	
13.2904	-0.125	32.3494	4.97498	0.0241089	0.00244141	0.00457764	12.5795	-0.912812	30.1954	0.52842	12.849	-0.269515	0.00222168	-0.00493164	0.269515	
14.159	-0.375	30.17	4.97284	0.0234985	0.00152588	0.00579834	12.5812	-0.915608	30.1964	0.528437	12.8489	-0.267707	0.00219727	-0.00446777	0.267707	
14.1156	0.78125	30.4995	4.96796	0.0241089	0.00213623	0.0454712	12.5837	-0.917753	30.1977	0.528459	12.8487	-0.265075	0.00217285	-0.0019165	0.265075	
1.82417	-0.53125	30.1062	4.96948	0.0259399	0.00213623	0.00823975	12.5851	-0.919152	30.199	0.528483	12.8486	-0.263475	0.00214844	-0.00169678	0.263475	
11.4662	-1.875	29.9573	4.97955	0.0259399	0.00152588	0.0241089	12.5832	-0.920266	30.2003	0.528505	12.8484	-0.265209	0.00201416	-0.00201416	0.265209	
12.8561	-1.3125	29.9999	4.97589	0.0241089	0.00274658	-0.0143433	12.5794	-0.921638	30.2014	0.528524	12.8482	-0.268871	0.0020874	-0.00196533	0.268871	
12.2046	-0.34375	30.0211	4.97375	0.0265503	0.00396729	0.0622559	12.5756	-0.923142	30.2023	0.52854	12.8481	-0.272568	0.00213623	0.000463867	0.272568	
12.8995	-0.53125	29.5321	4.97437	0.0234985	0.00213623	0.0112915	12.5719	-0.924413	30.203	0.528553	12.848	-0.276182	0.00213623	0.00272217	0.276182	
13.1167	-0.53125	30.2019	4.97223	0.0241089	0.00305176	0	12.5684	-0.925367	30.2035	0.528561	12.848	-0.279571	0.00219727	0.00140381	0.279571	
11.9005	-0.53125	30.0424	4.97162	0.0231934	0.00244141	-0.00274658	12.5652	-0.926042	30.2038	0.528566	12.8479	-0.282742	0.00224609	0.00325928	0.282742	
22.4112	-1.125	30.1487	4.97314	0.0271606	0.00274658	0.0119019	12.5635	-0.926541	30.204	0.52857	12.8479	-0.284402	0.00234375	0.00472412	0.284402	
12.1611	-0.78125	29.8298	4.97437	0.0250244	0.00274658	0.0430298	12.5648	-0.927001	30.2041	0.528572	12.8479	-0.283127	0.00240479	0.00733643	0.283127	
10.4673	-1.46875	29.8191	4.97467	0.0234985	0.0012207	-0.0125122	12.5671	-0.927514	30.2041	0.528571	12.8479	-0.280844	0.00228271	0.00699463	0.280844	
12.8995	-0.1875	30.1593	4.97437	0.0244141	0.00305176	0.0012207	12.5686	-0.928039	30.2038	0.528567	12.8479	-0.279328	0.0022583	0.00610352	0.279328	
14.159	0.65625	30.7334	4.96582	0.0247192	0.00152588	-0.0448608	12.5701	-0.928154	30.2036	0.528563	12.848	-0.27784	0.00219727	0.00385742	0.27784	
13.1167	-0.78125	30.4464	4.96735	0.0228882	0.00244141	0.0216675	12.5722	-0.927636	30.2036	0.528562	12.848	-0.27575	0.00218506	0.00144043	0.27575	
12.248	-0.59375	30.2869	4.96979	0.0241089	0.00274658	-0.0759888	12.5746	-0.926794	30.2037	0.528565	12.8479	-0.273345	0.00251465	-0.00119629	0.273345	
10.5107	0.09375	30.1062	4.97101	0.0274658	0.00152588	0.00762939	12.5766	-0.925696	30.2039	0.528568	12.8479	-0.271356	0.00249023	-0.00129395	0.271356	
12.9429	-1.5625	30.1806	4.97284	0.0250244	0.00335693	-0.0222778	12.5778	-0.924367	30.2041	0.528571	12.8479	-0.270074	0.00247803	-0.00300293	0.270074	
13.0298	3.875	30.2019	4.97711	0.0241089	0.00335693	0.0701904	12.5789	-0.922381	30.2042	0.528573	12.8479	-0.268977	0.00239258	-1.2207E-005	0.268977	
13.2904	-0.40625	30.3188	4.97253	0.0256348	0.00366211	0.00305176	12.5803	-0.918994	30.2043	0.528576	12.8479	-0.26761	0.00247803	0.00135498	0.26761	
12.9864	-0.5	30.3401	4.97284	0.0241089	0.00152588	-0.0106812	12.5819	-0.914758	30.2045	0.528579	12.8478	-0.26593	0.00241699	0.002771	0.26593	
14.2459	0.90625	30.457	4.96582	0.0234985	0.00244141	-0.0314331	12.584	-0.91018	30.2048	0.528584	12.8478	-0.263802	0.00240479	0.00311279	0.263802	
12.5086	-0.625	30.0743	4.97437	0.0253296	-0.000915527	0.0421143	12.5866	-0.90509	30.2052	0.52859	12.8478	-0.261171	0.00228271	0.00533447	0.261171	
11.6834	-2.09375	29.766	4.97955	0.0262451	0.0012207	0.00518799	12.5892	-0.899994	30.2054	0.528595	12.8477	-0.258549	0.00227051	0.00611572	0.258549	
11.7268	-1.09375	29.8404	4.9884	0.0259399	0.000610352	-0.0192261	12.5912	-0.895434	30.2055	0.528596	12.8477	-0.256474	0.00219727	0.00516357	0.256474	
12.0743	-1.21875	30.1381	4.97925	0.0262451	0.00213623	0.0131226	12.5927	-0.891331	30.2053	0.528593	12.8477	-0.254985	0.00222168	0.00545654	0.254985	
12.4217	-0.71875	30.053	4.97955	0.0234985	0.00213623	-0.00274658	12.5939	-0.887478	30.2051	0.528589	12.8478	-0.253884	0.00222168	0.00352783	0.253884	
13.2035	-0.59375	30.0211	4.98077	0.0234985	0.00335693	0.0222778	12.5949	-0.883712	30.2048	0.528584	12.8478	-0.252871	0.00227051	0.00408936	0.252871	
12.2046	-1	31.063	4.97894	0.0271606	0.00335693	0.00640869	12.596	-0.879981	30.2045	0.528579	12.8478	-0.251786	0.00234375	0.00338135	0.251786	
12.0743	-0.5	29.9892	4.98108	0.027771	0.00274658	-0.00579834	12.597	-0.876313	30.2045	0.528578	12.8478	-0.25082	0.00234375	0.00372314	0.25082	
11.7702	-1.125	29.9255	4.98352	0.027771	0.00396729	-0.00305176	12.5976	-0.872715	30.2045	0.528578	12.8478	-0.250236	0.00234375	0.00111084	0.250236	
11.1622	-2.125	29.8829	4.98657	0.0256348	0.00213623	0.00366211	12.5976	-0.869457	30.2043	0.528575	12.8479	-0.250256	0.00234375	0.000805664	0.250256	
11.8137	-2.40625	30.2444	4.97925	0.0253296	0.00213623	-0.0131226	12.5969	-0.866981	30.204	0.528569	12.8479	-0.250988	0.00230713	0.000280762	0.250988	
14.8105	0.15625	30.4995	4.96582	0.0271606	0.00213623	-0.0192261	12.5961	-0.865105	30.2037	0.528564	12.8479	-0.251815	0.00229492	-0.000378418	0.251815	
13.4641	0.125	30.3507	4.98169	0.0259399	0.00274658	-0.0476074	12.5961	-0.863063	30.2035	0.528561	12.848	-0.251898	0.00229492	-0.00275879	0.251898	
13.0298	-0.375	28.7879	4.98352	0.0247192	0.00152588	-0.0238037	12.5967	-0.860552	30.2032	0.528556	12.848	-0.251314	0.00224609	-0.00543213	0.251314	
11.9874	-1.71875	30.2869	4.98871	0.0256348	0.0012207	0.057373	12.5975	-0.857959	30.2025	0.528544	12.8481	-0.250629	0.00224609	-0.00263672	0.250629	
12.3783	-1.25	30.0956	4.98657	0.0253296	0.000305176	-0.0326538	12.5981	-0.855709	30.2017	0.528529	12.8482	-0.250152	0.00213623	-0.0039917	0.250152	
20.2396	-0.875	30.1806	4.98779	0.0247192	0.00274658	0.0320435	12.5997	-0.853796	30.2008	0.528514	12.8483	-0.248671	0.00218506	-0.000915527	0.248671	
13.1167	-0.3125	29.0856	4.98322	0.0222778	0.00396729	-0.0350952	12.6036	-0.851935	30.1998	0.528496	12.8485	-0.244852	0.00224609	-0.00318604	0.244852	
13.2904	-0.4375	30.3613	4.98688	0.0259399	0.00366211	0.020752	12.6089	-0.849911	30.1985	0.528473	12.8486	-0.239758	0.00228271	0.000683594	0.239758	
13.7247	-0.34375	30.457	4.98169	0.0241089	0.00213623	-0.0344849	12.6144	-0.847667	30.1971	0.52845	12.8488	-0.23439	0.00230713	-0.00100098	0.23439	
12.0743	-0.625	30.9886	4.98749	0.0234985	0.00274658	0.0515747	12.6201	-0.845247	30.1961	0.528431	12.8489	-0.228813	0.00228271	0.00195313	0.228813	
11.2056	-1.875	29.6916	4.9939	0.0280762	0.00457764	0.0454712	12.6254	-0.842925	30.1952	0.528416	12.8491	-0.223621	0.00233154	0.000964355	0.223621	
11.944	-1.34375	30.1274	4.9942	0.0262451	0.00457764	0.00610352	12.6299	-0.841049	30.1944	0.528402	12.8492	-0.219248	0.00236816	0.00108643	0.219248	
3.64834	-0.9375	30.0743	4.9939	0.0234985	0.00366211	0.00762939	12.6324	-0.839569	30.1935	0.528385	12.8493	-0.21687	0.00245361	0.00181885	0.21687	
12.2046	-0.59375	30.1062	4.99298	0.0219727	0.0012207	-0.0518799	12.6319	-0.838212	30.1925	0.528369	12.8494	-0.217545	0.00240479	0.00100098	0.217545	
12.4652	4.90625	30.2019	4.9939	0.0283813	0.00274658	0.00976563	12.6298	-0.83595	30.1915	0.528352	12.8495	-0.219753	0.00255127	-0.000292969	0.219753	
12.7692	-0.71875	30.2125	4.9939	0.0262451	0.00152588	-0.0668335	12.6277	-0.83193	30.1906	0.528335	12.8497	-0.221981	0.00256348	-0.00317383	0.221981	
11.4662	-0.84375	29.7341	4.99237	0.0244141	0.00366211	0.0558472	12.6255	-0.827126	30.1896	0.528318	12.8498	-0.224301	0.00268555	-0.000170898	0.224301	
11.9874	-0.96875	27.9161	4.99542	0.0262451	0.00579834	-0.022583	12.6229	-0.822501	30.1882	0.528293	12.85	-0.227041	0.00283203	-0.00159912	0.227041	
11.4228	-1.59375	29.851	4.99847	0.027771	0.00244141	-0.0369263	12.6199	-0.818205	30.186	0.528255	12.8503	-0.230356	0.00284424	-0.00296631	0.230356	
15.158	-1.09375	30.3613	4.9881	0.0247192	0.00274658	0.0204468	12.6169	-0.814367	30.1834	0.52821	12.8506	-0.233688	0.00281982	-0.00303955	0.233688	
13.5075	0.125	30.4995	4.98871	0.0219727	0.00213623	0.0192261	12.6148	-0.810724	30.181	0.528168	12.8509	-0.236155	0.002771	-0.00252686	0.236155	
13.3338	-2.71875	30.4145	4.98932	0.0234985	0.00152588	-0.0881958	12.6135	-0.807258	30.1788	0.52813	12.8512	-0.237731	0.00272217	-0.00582275	0.237731	
12.5086	-1.03125	30.3613	4.99176	0.0253296	0.00213623	0.0186157	12.6126	-0.804396	30.1769	0.528096	12.8515	-0.238886	0.00264893	-0.00495605	0.238886	
12.6389	-0.375	30.5208	4.99176	0.0247192	0.00152588	-0.0564575	12.6118	-0.801935	30.1752	0.528065	12.8517	-0.239898	0.00262451	-0.00736084	0.239898	
12.5955	-1.125	30.2231	4.99359	0.0228882	0.00213623	0.0524902	12.611	-0.799513	30.1736	0.528039	12.8519	-0.240866	0.00262451	-0.00473633	0.240866	
12.8561	-1.46875	30.4783	4.98932	0.0241089	0.000305176	-0.00579834	12.6103	-0.797315	30.1723	0.528015	12.8521	-0.241748	0.00255127	-0.00419922	0.241748	
11.9005	0.40625	30.4889	4.99023	0.0222778	0.00213623	0.0393677	12.6096	-0.795266	30.1711	0.527995	12.8522	-0.242614	0.00252686	-0.000720215	0.242614	
8.20876	-0.40625	30.3613	4.98749	0.0234985	0.00213623	-0.0125122	12.608	-0.79296	30.1702	0.527979	12.8523	-0.244292	0.00255127	-0.000268555	0.244292	
13.6813	1	30.5314	4.98322	0.0241089	0.00213623	0.020752	12.6052	-0.79015	30.1695	0.527966	12.8524	-0.247199	0.00258789	-0.0017334	0.247199	
12.4217	-0.6875	30.4995	4.99176	0.0247192	0.0012207	-0.0378418	12.6021	-0.786807	30.1689	0.527957	12.8525	-0.250354	0.00262451	-0.00194092	0.250354	
10.7279	-1.78125	29.9467	4.99542	0.0265503	0.00213623	-0.00366211	12.599	-0.783428	30.1686	0.52795	12.8526	-0.253563	0.0026001	-0.00336914	0.253563	
12.0743	-1.28125	29.245	4.99054	0.0265503	0.00274658	0.0259399	12.5953	-0.780538	30.168	0.527941	12.8526	-0.257371	0.00255127	-0.000927734	0.257371	
12.2914	-1.625	29.968	4.99054	0.0213623	0.000915527	0.0268555	12.5911	-0.778191	30.1672	0.527926	12.8527	-0.26159	0.00244141	-0.000683594	0.26159	
14.7671	-0.96875	30.2231	4.99023	0.0238037	0.00274658	0.00854492	12.5873	-0.776296	30.1662	0.527908	12.8529	-0.265523	0.00246582	0.0010376	0.265523	
22.7153	-0.84375	30.2019	5.00275	0.0265503	0.00274658	-0.0161743	12.5859	-0.774669	30.1652	0.52789	12.853	-0.267117	0.00246582	-0.00167236	0.267117	
12.3349	-0.875	30.2231	4.99146	0.0259399	0.00152588	-0.0228882	12.5879	-0.773167	30.1642	0.527874	12.8531	-0.26521	0.00234375	-0.00440674	0.26521	
12.1177	-2.125	30.1593	4.99298	0.0247192	0.00274658	0.0259399	12.5913	-0.771969	30.1634	0.527859	12.8532	-0.261947	0.00227051	-0.00361328	0.261947	
12.0308	-1.6875	30.0318	4.99237	0.0253296	0.00213623	-0.00946045	12.5943	-0.77139	30.1625	0.527844	12.8534	-0.259072	0.00220947	-0.00429688	0.259072	
11.3359	-1.09375	30.2869	4.99146	0.0265503	0.00213623	0.0601196	12.5967	-0.771376	30.1616	0.527829	12.8535	-0.256745	0.00224609	0.000183105	0.256745	
12.8126	-0.4375	30.2231	4.9881	0.0247192	-0.000915527	-0.00518799	12.5986	-0.771553	30.1608	0.527815	12.8536	-0.254942	0.00209961	-0.000415039	0.254942	
14.7237	0.40625	30.5102	4.98322	0.0241089	0.00671387	-0.0378418	12.6007	-0.771488	30.1602	0.527803	12.8537	-0.252988	0.00230713	0.000744629	0.252988	
9.07742	-0.53125	30.372	4.97925	0.0274658	0.00457764	-0.00854492	12.6028	-0.77097	30.1597	0.527794	12.8537	-0.250938	0.00234375	-0.00183105	0.250938	
13.1167	-1.875	30.4145	4.98108	0.0259399	0.00213623	0.0231934	12.6041	-0.770384	30.1594	0.527789	12.8538	-0.249624	0.00219727	0	0.249624	
12.7692	0.34375	30.4358	4.98566	0.0241089	0.00213623	0.0827026	12.6051	-0.769952	30.1592	0.527786	12.8538	-0.248698	0.00218506	0.00478516	0.248698	
12.9864	-0.71875	30.1168	4.98077	0.0256348	0.00274658	-0.039978	12.6062	-0.769353	30.1592	0.527786	12.8538	-0.247599	0.00218506	0.00236816	0.247599	
13.4641	-1.0625	29.8617	4.98077	0.027771	0.00213623	-0.0289917	12.6075	-0.768632	30.1591	0.527785	12.8538	-0.246265	0.00218506	0.000439453	0.246265	
12.8995	-1.375	30.4145	4.98169	0.0231934	0.00274658	-0.0106812	12.6092	-0.768113	30.159	0.527783	12.8538	-0.244615	0.00223389	0.00354004	0.244615	
13.6378	-0.15625	30.5208	4.97528	0.0253296	-0.00274658	-0.00610352	12.6112	-0.767752	30.159	0.527783	12.8538	-0.242628	0.00203857	0.00255127	0.242628	
14.7237	0.71875	30.6059	4.97528	0.0231934	0.00183105	-0.0299072	12.6138	-0.767077	30.1592	0.527787	12.8538	-0.239991	0.00205078	0.00361328	0.239991	
12.7258	0.34375	30.2338	4.98657	0.0271606	0.00274658	-0.0259399	12.6171	-0.765698	30.1596	0.527794	12.8537	-0.236588	0.0020752	0.000476074	0.236588	
11.5965	-2.84375	29.9573	4.98077	0.0271606	0.00305176	0.0247192	12.6206	-0.764114	30.1601	0.527802	12.8537	-0.233094	0.00218506	0.00169678	0.233094	
12.2914	-0.78125	29.968	4.98077	0.0231934	0.00152588	-0.00579834	12.6235	-0.763062	30.1605	0.527808	12.8536	-0.230084	0.00216064	-0.000109863	0.230084	
11.9874	-1.15625	30.0424	4.97864	0.0241089	0.00366211	0.0280762	12.626	-0.762436	30.1607	0.527812	12.8536	-0.227556	0.00222168	0.00151367	0.227556	
13.2469	-0.625	31.6796	4.97955	0.0259399	0.00152588	-0.0286865	12.6283	-0.761936	30.1611	0.527819	12.8535	-0.225247	0.00219727	-0.000463867	0.225247	
13.1167	-0.65625	30.1912	4.97894	0.0271606	0.00610352	0.0497437	12.6306	-0.761456	30.1619	0.527834	12.8534	-0.222791	0.00239258	0.00303955	0.222791	
13.8984	-0.59375	30.0424	4.97681	0.0216675	0.00152588	0.0143433	12.6333	-0.760912	30.163	0.527852	12.8533	-0.219947	0.00236816	0.00375977	0.219947	
11.8137	-0.53125	30.2976	4.96185	0.0241089	0.00152588	0.00274658	12.6363	-0.760284	30.164	0.527869	12.8532	-0.216865	0.00231934	0.00283203	0.216865	
11.6399	-0.28125	30.0743	4.97711	0.0259399	0.00305176	-0.0393677	12.6389	-0.759506	30.1649	0.527886	12.853	-0.214102	0.00240479	0.000183105	0.214102	
11.5531	-1.34375	29.8617	4.98108	0.0271606	0.00213623	0.00396729	12.6409	-0.758663	30.1658	0.527902	12.8529	-0.21205	0.00238037	0	0.21205	
13.1167	-0.53125	30.4889	4.97467	0.020752	0.00152588	0.00274658	12.6423	-0.757921	30.1666	0.527915	12.8528	-0.210496	0.00233154	0.000756836	0.210496	
14.6802	0.71875	29.7128	4.96857	0.0247192	0.00274658	-0.0515747	12.644	-0.756996	30.1673	0.527928	12.8527	-0.208705	0.00238037	-0.000390625	0.208705	
13.6813	0.28125	30.2869	4.97223	0.0265503	0.00152588	-0.0158691	12.6465	-0.75545	30.168	0.52794	12.8526	-0.206119	0.00233154	-0.00206299	0.206119	
12.8561	-0.65625	30.3613	4.97162	0.0259399	-0.000305176	-0.0387573	12.6496	-0.753392	30.1686	0.527951	12.8525	-0.202955	0.00223389	-0.00323486	0.202955	
7.77444	0.125	30.2231	4.97284	0.022583	0.00244141	0.0360107	12.652	-0.751079	30.1693	0.527962	12.8525	-0.200422	0.00224609	-0.00419922	0.200422	
12.8126	-0.15625	30.1168	4.97162	0.0259399	0.00366211	0.039978	12.6529	-0.748468	30.17	0.527975	12.8524	-0.19943	0.0024292	-0.00239258	0.19943	
13.3338	0.21875	30.2444	4.97437	0.0259399	0.0012207	-0.0112915	12.6532	-0.745478	30.1707	0.527986	12.8523	-0.199074	0.00220947	-0.00133057	0.199074	
13.1601	-0.125	30.0849	4.96979	0.0234985	0.00335693	0.00274658	12.6538	-0.742106	30.1713	0.527998	12.8522	-0.198415	0.00216064	-0.000878906	0.198415	
13.2035	-0.6875	30.9886	4.97162	0.0256348	0.00274658	-0.0256348	12.6547	-0.738503	30.1721	0.528011	12.8521	-0.197417	0.00218506	-0.00283203	0.197417	
