9.51174	-0.28125	40.8014	4.97833	0.0259399	0.00671387	0.00946045	9.51174	-0.28125	40.8014	0.714025	11.2441	-1.73232	0.00671387	0.00946045	1.73232	
9.68547	-0.28125	40.9184	4.97986	0.0247192	0.0012207	-0.0308228	9.51177	-0.28125	40.8014	0.714025	11.2441	-1.73229	0.00396729	-0.0106812	1.73229	
9.9895	0.28125	40.9609	4.9765	0.0222778	0.00213623	0.0106812	9.51192	-0.281163	40.8015	0.714027	11.244	-1.73212	0.00335693	-0.00356038	1.73212	
10.2501	2.71875	41.0885	4.97681	0.0213623	0.00396729	0.00671387	9.51236	-0.280439	40.8017	0.71403	11.244	-1.73165	0.00350952	-0.000991821	1.73165	
10.8582	0.34375	41.2161	4.96857	0.0247192	0.0012207	-0.0350952	9.5133	-0.278625	40.8021	0.714036	11.244	-1.73065	0.00305176	-0.0078125	1.73065	
9.81577	-0.65625	41.0353	4.97345	0.0250244	0.00152588	-0.017395	9.51478	-0.276275	40.8026	0.714046	11.2439	-1.72908	0.00279744	-0.00940959	1.72908	
8.94712	-0.96875	40.5994	4.98199	0.0238037	0.00213623	-0.00976563	9.51642	-0.274137	40.8033	0.714057	11.2437	-1.72733	0.00270299	-0.00946045	1.72733	
9.12085	-1.09375	40.7057	4.97742	0.0271606	0.00366211	0	9.51781	-0.272475	40.8038	0.714067	11.2436	-1.72583	0.00282288	-0.00827789	1.72583	
9.16428	-0.71875	40.525	4.97589	0.0241089	0.00152588	-0.0125122	9.51889	-0.271303	40.8043	0.714075	11.2436	-1.72468	0.00267877	-0.00874837	1.72468	
15.8963	-0.59375	40.6951	4.97528	0.0247192	0.00274658	-0.0109863	9.52075	-0.270489	40.8046	0.714081	11.2435	-1.72277	0.00268555	-0.00897217	1.72277	
9.90264	-1.21875	40.8227	4.97528	0.0256348	0.00213623	0.0241089	9.52453	-0.27002	40.8048	0.714085	11.2435	-1.71895	0.00263561	-0.0059648	1.71895	
9.68547	-0.34375	40.8227	4.97681	0.0247192	0.00274658	0.0363159	9.5293	-0.269924	40.8051	0.714088	11.2434	-1.71414	0.00264486	-0.00244141	1.71414	
9.59861	-0.6875	40.6207	4.97711	0.0271606	0.00335693	-0.0125122	9.53403	-0.270065	40.8052	0.714092	11.2434	-1.70938	0.00269963	-0.00321608	1.70938	
8.81682	-1.21875	40.5037	4.97711	0.0253296	0.00213623	0.00518799	9.53852	-0.27049	40.8053	0.714093	11.2434	-1.70488	0.00265939	-0.00261579	1.70488	
8.29563	-1.8125	38.7708	4.97711	0.0244141	0.00366211	-0.0186157	9.54245	-0.271499	40.805	0.714087	11.2435	-1.70101	0.00272624	-0.00368245	1.70101	
9.94607	-0.25	40.7483	4.97192	0.0244141	0.00518799	0.0195313	9.5458	-0.273094	40.8039	0.714069	11.2436	-1.69783	0.0028801	-0.0022316	1.69783	
10.6844	-0.09375	41.0566	4.96918	0.0241089	0.00213623	0.00274658	9.54915	-0.274837	40.8026	0.714046	11.2439	-1.69471	0.00283634	-0.00193876	1.69471	
7.55728	0.4375	40.9396	4.96185	0.0238037	0.00244141	-0.0125122	9.55248	-0.276348	40.8015	0.714026	11.2441	-1.69158	0.0028144	-0.00252618	1.69158	
10.0329	-2.0625	40.7376	4.97375	0.0247192	0.00457764	-0.00549316	9.55532	-0.277834	40.8004	0.714007	11.2442	-1.68891	0.0029072	-0.00268233	1.68891	
9.72891	-0.71875	40.9184	4.97498	0.0265503	0.00152588	0.00610352	9.55794	-0.27978	40.7994	0.71399	11.2444	-1.68646	0.00283813	-0.00224304	1.68646	
9.68547	0.125	40.5888	4.97345	0.0238037	0.00152588	-0.00244141	9.5606	-0.282007	40.7985	0.713973	11.2446	-1.68396	0.00277565	-0.00225249	1.68396	
9.81577	0.21875	40.7057	4.97681	0.0222778	0.00457764	-0.000305176	9.56328	-0.284021	40.7975	0.713956	11.2447	-1.68145	0.00285756	-0.00216397	1.68145	
9.9895	0.09375	40.7376	4.97375	0.0259399	0.00183105	0.0454712	9.56603	-0.285686	40.7965	0.713938	11.2449	-1.67887	0.00281292	-9.28796E-005	1.67887	
10.5107	0.625	41.0353	4.97101	0.0247192	0.00427246	-0.0115967	9.569	-0.286955	40.7955	0.713921	11.2451	-1.67607	0.00287374	-0.000572205	1.67607	
12.5955	0.21875	41.0566	4.96887	0.0228882	0.00457764	-0.0131226	9.57269	-0.28776	40.7947	0.713906	11.2452	-1.67252	0.00294189	-0.00107422	1.67252	
8.86025	-0.09375	40.7908	4.97528	0.0259399	0.00213623	0.0320435	9.57723	-0.288208	40.794	0.713894	11.2453	-1.6681	0.00275879	-0.000170898	1.6681	
8.20876	1.34375	40.6845	4.97894	0.0241089	0.00274658	0.0238037	9.58164	-0.288248	40.7933	0.713883	11.2454	-1.6638	0.00281982	0.00201416	1.6638	
9.12085	-0.78125	40.642	4.97742	0.0253296	0.00213623	-0.0405884	9.58529	-0.287826	40.7926	0.713871	11.2456	-1.66027	0.00281982	-3.66211E-005	1.66027	
8.51279	-0.84375	40.8865	4.97955	0.0244141	0.00274658	0.0357056	9.58829	-0.287406	40.7919	0.713859	11.2457	-1.65739	0.002771	0.00112305	1.65739	
8.90369	-1	42.0559	4.97833	0.0231934	0.00274658	-0.0109863	9.59067	-0.28736	40.7914	0.71385	11.2458	-1.6551	0.00283203	0.0020874	1.6551	
9.94607	-0.71875	40.8758	4.97864	0.0256348	0.00366211	-0.00854492	9.59264	-0.28769	40.7914	0.71385	11.2458	-1.65313	0.00291748	0.00244141	1.65313	
7.60071	-1.34375	40.8333	4.97894	0.0256348	0.000915527	-0.0161743	9.59423	-0.288416	40.7916	0.713853	11.2457	-1.6515	0.00286865	0.00218506	1.6515	
14.7671	-0.78125	40.6313	4.97711	0.0262451	0.00396729	0.0253296	9.59601	-0.289588	40.7918	0.713856	11.2457	-1.64969	0.00288086	0.00319824	1.64969	
8.51279	-0.78125	40.5569	4.98566	0.0247192	0.00457764	0.00610352	9.59886	-0.291111	40.7919	0.713858	11.2457	-1.64683	0.00300293	0.00394287	1.64683	
7.38354	-0.96875	40.5782	4.98688	0.0259399	0.00213623	0.00915527	9.60172	-0.292915	40.7918	0.713857	11.2457	-1.64397	0.00297852	0.00474854	1.64397	
9.64204	-0.09375	40.9396	4.97894	0.0231934	0.00335693	0.00915527	9.60364	-0.294909	40.7917	0.713855	11.2457	-1.64208	0.00302734	0.00415039	1.64208	
10.4238	0.15625	40.9822	4.97772	0.0231934	0.00488281	-0.00762939	9.60528	-0.296807	40.7916	0.713854	11.2457	-1.64045	0.00311279	0.00239258	1.64045	
8.55623	-0.59375	39.6107	4.98383	0.0265503	0.00183105	0.000610352	9.60696	-0.298512	40.7915	0.713851	11.2458	-1.6388	0.00305176	0.00291748	1.6388	
9.12085	0.0625	40.9609	4.98444	0.0256348	0.00610352	-0.0296021	9.60831	-0.300123	40.791	0.713843	11.2458	-1.63753	0.00321045	0.00152588	1.63753	
7.90474	-0.28125	41.0034	4.98749	0.0238037	0.00335693	0.0308228	9.60903	-0.301607	40.7904	0.713833	11.2459	-1.6369	0.00319824	0.00350342	1.6369	
9.51174	-0.28125	40.7057	4.98901	0.0241089	0.00274658	0.0289917	9.60911	-0.302974	40.79	0.713825	11.246	-1.6369	0.00310059	0.00388184	1.6369	
9.20771	-2.59375	41.0459	4.98383	0.0241089	0.00152588	-0.0643921	9.60883	-0.304638	40.7896	0.713818	11.2461	-1.63725	0.00307617	0.00119629	1.63725	
9.03398	-0.84375	41.131	4.98871	0.0231934	0.00427246	-0.015564	9.60833	-0.307034	40.7893	0.713813	11.2461	-1.63779	0.00314941	0.00107422	1.63779	
9.8592	-0.4375	40.9822	4.98749	0.0241089	0.00244141	0.0134277	9.60764	-0.309889	40.7893	0.713812	11.2461	-1.63849	0.00306396	0.00183105	1.63849	
10.5107	0.09375	41.1629	4.98444	0.0231934	0.00396729	-0.020752	9.60711	-0.312703	40.7894	0.713814	11.2461	-1.63901	0.00316162	0.000756836	1.63901	
9.12085	-0.53125	40.7057	4.99176	0.0250244	0.00366211	0.017395	9.60684	-0.315346	40.7896	0.713818	11.2461	-1.63924	0.00324707	0.00155029	1.63924	
8.90369	-1.46875	40.7057	4.99481	0.0271606	0.00152588	-0.00579834	9.60646	-0.31808	40.7898	0.713822	11.246	-1.63957	0.003125	0.00133057	1.63957	
12.8126	-1.28125	40.8865	4.99634	0.0247192	0.00274658	-0.00152588	9.6063	-0.321257	40.79	0.713826	11.246	-1.6397	0.00316162	-0.000549316	1.6397	
9.16428	-1.03125	40.7376	4.99146	0.0234985	0.00457764	0.0378418	9.60696	-0.32491	40.7902	0.713829	11.246	-1.639	0.00317383	0.00142822	1.639	
9.12085	-1.125	40.7802	4.99054	0.0250244	0.00152588	0.0485229	9.60789	-0.328927	40.7904	0.713833	11.2459	-1.63805	0.00305176	0.00389404	1.63805	
9.42488	-1.34375	41.0778	4.99054	0.0234985	0.000915527	-0.0286865	9.60853	-0.333317	40.7907	0.713837	11.2459	-1.63737	0.00300293	0.00146484	1.63737	
9.25115	-0.59375	40.5356	4.99054	0.0253296	0.00396729	0.0445557	9.60896	-0.33803	40.7909	0.713841	11.2459	-1.63689	0.00305176	0.00229492	1.63689	
8.55623	-0.78125	42.2048	4.99481	0.0283813	0.00274658	0.0424194	9.60907	-0.342883	40.7914	0.713849	11.2458	-1.6367	0.00307617	0.00561523	1.6367	
7.81787	-1.34375	40.7908	4.99359	0.0259399	0.000305176	-0.00793457	9.60852	-0.347896	40.7922	0.713863	11.2456	-1.63711	0.00297852	0.00386963	1.63711	
8.46936	-1.40625	40.6207	4.9939	0.0250244	0.00366211	-0.00335693	9.60709	-0.353275	40.7932	0.713881	11.2455	-1.63837	0.00301514	0.0041748	1.63837	
8.86025	-0.96875	41.0991	4.98871	0.0234985	0.00335693	-0.0180054	9.60497	-0.359042	40.7941	0.713897	11.2453	-1.64034	0.00300293	0.00379639	1.64034	
10.8582	0.28125	41.2586	4.98627	0.0250244	0.00274658	-0.0192261	9.60271	-0.36486	40.7952	0.713916	11.2451	-1.64242	0.00307617	0.00367432	1.64242	
9.81577	-0.78125	41.0034	4.98932	0.0253296	0.00335693	-0.0210571	9.60083	-0.370433	40.7964	0.713937	11.2449	-1.64408	0.00305176	0.00181885	1.64408	
9.33801	-0.5	41.0566	4.9881	0.0234985	0.00213623	0.0180054	9.59924	-0.375857	40.7978	0.713961	11.2447	-1.64544	0.0029541	0.00229492	1.64544	
8.2522	-0.78125	40.7802	4.99237	0.0247192	0.00213623	-0.00427246	9.59745	-0.381257	40.7992	0.713986	11.2444	-1.64699	0.0029541	0.00175781	1.64699	
9.68547	-0.65625	40.7695	4.99237	0.0234985	0.00457764	0.00427246	9.59528	-0.386653	40.8006	0.714011	11.2442	-1.64892	0.00300293	0.0015625	1.64892	
9.38145	-0.53125	41.1204	4.99146	0.0256348	0.00518799	0.00946045	9.59297	-0.392027	40.802	0.714036	11.244	-1.65099	0.00301514	0.00224609	1.65099	
6.38459	-0.1875	41.1097	4.99115	0.0222778	0.00213623	0.0012207	9.59019	-0.397267	40.8035	0.714062	11.2437	-1.65351	0.00302734	0.00227051	1.65351	
10.0329	0.125	40.9715	4.98871	0.022583	0.00457764	0.0241089	9.58655	-0.402198	40.8051	0.71409	11.2434	-1.65688	0.00296631	0.00441895	1.65688	
11.0753	-0.90625	41.3011	4.98108	0.0256348	0.00152588	-0.0421143	9.58291	-0.406838	40.8069	0.71412	11.2431	-1.66022	0.00289307	0.00150146	1.66022	
9.20771	-1.53125	40.9609	4.98932	0.0250244	0.00244141	0.00549316	9.57988	-0.411563	40.8087	0.714153	11.2428	-1.66294	0.00288086	0.000561523	1.66294	
9.03398	-2.21875	40.9396	4.99359	0.0259399	0.00335693	0.0119019	9.57698	-0.416828	40.8107	0.714187	11.2425	-1.66551	0.0029541	0.00361328	1.66551	
9.12085	-0.875	41.3543	4.99054	0.0283813	0.00213623	0.0259399	9.57388	-0.422712	40.8127	0.714223	11.2421	-1.66825	0.00286865	0.00527344	1.66825	
8.99055	-0.90625	40.8333	4.9881	0.0241089	0.00274658	0.0106812	9.57058	-0.428885	40.8149	0.71426	11.2418	-1.67119	0.00288086	0.00516357	1.67119	
10.337	-0.5625	40.8652	4.98901	0.0247192	0.00427246	0.0137329	9.56726	-0.43508	40.817	0.714298	11.2414	-1.67414	0.00289307	0.00654297	1.67414	
13.2469	-0.84375	40.8865	4.99054	0.0241089	0.0012207	-0.0125122	9.56478	-0.441234	40.8192	0.714335	11.241	-1.67625	0.00279541	0.00534668	1.67625	
9.29458	-1.09375	40.9928	4.98932	0.0262451	0.00305176	0.0119019	9.56361	-0.447419	40.8213	0.714372	11.2407	-1.67707	0.00285645	0.00605469	1.67707	
9.03398	-5.84375	40.7908	4.98749	0.0265503	0.00305176	0.0256348	9.56288	-0.454487	40.8234	0.714409	11.2403	-1.67744	0.00286865	0.00714111	1.67744	
8.55623	-1.375	40.8227	4.98749	0.0231934	0.00213623	0.0112915	9.56181	-0.463222	40.8254	0.714444	11.24	-1.67816	0.002771	0.0060791	1.67816	
7.94817	-1.28125	40.3443	4.99023	0.0253296	0.00152588	-0.0183105	9.56014	-0.472897	40.8273	0.714477	11.2397	-1.67951	0.002771	0.00340576	1.67951	
9.55518	-1	41.0885	4.98169	0.0231934	0.00427246	-0.0430298	9.55787	-0.482707	40.829	0.714507	11.2394	-1.68149	0.00290527	0.00283203	1.68149	
10.1632	0.125	41.2373	4.97467	0.0259399	0.000305176	0.0476074	9.55553	-0.492364	40.8307	0.714537	11.2391	-1.68354	0.00275879	0.0029541	1.68354	
10.8582	-0.78125	41.0778	4.97833	0.0228882	0.00274658	0.022583	9.55365	-0.501616	40.8326	0.71457	11.2387	-1.6851	0.00275879	0.00216064	1.6851	
10.5107	-0.3125	40.9715	4.9826	0.0241089	0.00366211	0	9.55249	-0.510505	40.8345	0.714604	11.2384	-1.68592	0.00289307	0.00247803	1.68592	
9.77234	-0.9375	40.7802	4.97955	0.0259399	0.00152588	-0.0228882	9.55191	-0.51913	40.8365	0.714638	11.2381	-1.68618	0.00280762	0.00169678	1.68618	
10.0764	-0.46875	40.8758	4.97955	0.0247192	0.00274658	0.00213623	9.55164	-0.527544	40.8384	0.714672	11.2378	-1.68612	0.0027832	0.00250244	1.68612	
10.6844	-0.96875	41.0991	4.9826	0.0241089	0.00305176	0.00823975	9.55175	-0.535778	40.8403	0.714704	11.2374	-1.68568	0.00279541	0.00360107	1.68568	
10.2067	-0.46875	40.2592	4.97437	0.0259399	0.00213623	0.00305176	9.5524	-0.543838	40.8421	0.714736	11.2371	-1.68473	0.00274658	0.00456543	1.68473	
9.8592	-0.0625	41.2479	4.97223	0.0244141	0.00335693	0.00610352	9.55345	-0.551584	40.8437	0.714765	11.2368	-1.6834	0.00279541	0.00408936	1.6834	
12.2914	-0.125	40.9609	4.97131	0.0228882	-0.000915527	-0.0213623	9.55508	-0.55883	40.8454	0.714794	11.2366	-1.68148	0.00267334	0.00340576	1.68148	
5.16848	-1.09375	40.6526	4.97498	0.0247192	0.00152588	0.0314331	9.55687	-0.565693	40.8471	0.714824	11.2363	-1.6794	0.00255127	0.00449219	1.6794	
8.72996	-1.59375	40.44	4.97711	0.0265503	0.00213623	0.0363159	9.55754	-0.572572	40.8486	0.71485	11.236	-1.67848	0.0024292	0.00556641	1.67848	
9.51174	3.125	40.7164	4.97772	0.0256348	0.00274658	0.010376	9.55723	-0.579034	40.8498	0.714872	11.2358	-1.67857	0.00245361	0.00593262	1.67857	
9.51174	-0.625	40.8333	4.97711	0.0216675	0.000610352	-0.0408936	9.55679	-0.584286	40.851	0.714892	11.2356	-1.67882	0.00229492	0.00333252	1.67882	
9.51174	-0.5625	40.9609	4.97467	0.0222778	0.00213623	0.0198364	9.55633	-0.588789	40.852	0.714911	11.2354	-1.67909	0.00231934	0.00581055	1.67909	
9.8592	-0.25	41.1416	4.97681	0.0256348	0.0012207	0.0109863	9.55592	-0.593079	40.8532	0.71493	11.2352	-1.67932	0.00227051	0.00603027	1.67932	
9.12085	-0.84375	40.8121	4.97559	0.0259399	0.00213623	-0.00915527	9.55554	-0.597147	40.8543	0.714951	11.235	-1.67949	0.00222168	0.00518799	1.67949	
9.25115	-0.71875	40.9077	4.97345	0.0250244	0.00366211	-0.0308228	9.55504	-0.601114	40.8555	0.714971	11.2348	-1.67979	0.00228271	0.00291748	1.67979	
2.21506	-0.90625	40.6207	4.97528	0.0244141	0.00396729	0.0323486	9.55326	-0.605065	40.8566	0.714991	11.2346	-1.68139	0.00233154	0.00378418	1.68139	
8.51279	-1.5625	40.525	4.97681	0.0262451	0.00274658	0.0527954	9.54905	-0.609137	40.8576	0.715007	11.2345	-1.68543	0.00227051	0.00534668	1.68543	
10.0329	-0.53125	41.0034	4.97192	0.0247192	0.00274658	-0.0280762	9.5436	-0.613396	40.8584	0.715021	11.2343	-1.69074	0.00233154	0.00472412	1.69074	
11.249	0.28125	40.9396	4.96704	0.0234985	0.00457764	-0.0100708	9.53861	-0.61749	40.8591	0.715035	11.2342	-1.69561	0.00239258	0.00384521	1.69561	
9.55518	0.03125	40.9396	4.97101	0.0241089	0.00213623	-0.0271606	9.53439	-0.621048	40.8599	0.715049	11.2341	-1.69968	0.00235596	0.0017334	1.69968	
10.4673	-0.78125	41.0885	4.97223	0.0244141	0.00274658	0.0350952	9.53074	-0.624164	40.8608	0.715064	11.2339	-1.70319	0.00238037	0.00268555	1.70319	
9.68547	-0.09375	40.7908	4.97528	0.0247192	0.00640869	0.00488281	9.52754	-0.627036	40.8617	0.71508	11.2338	-1.70624	0.00257568	0.00361328	1.70624	
10.1198	-0.34375	40.9396	4.9762	0.0247192	0.00213623	0.0210571	9.52474	-0.629623	40.8626	0.715095	11.2336	-1.70889	0.00249023	0.00617676	1.70889	
8.86025	-0.5	41.0353	4.97284	0.0253296	0.00274658	-0.0369263	9.52214	-0.631927	40.8635	0.715111	11.2335	-1.71133	0.00258789	0.00279541	1.71133	
10.0329	1.28125	41.131	4.97223	0.0234985	0.00396729	-0.00610352	9.51959	-0.633768	40.8645	0.715128	11.2333	-1.71371	0.00263672	0.00164795	1.71371	
10.3804	0.46875	41.0247	4.96765	0.0210571	0.00274658	-0.00946045	9.51733	-0.634758	40.8655	0.715147	11.2331	-1.71579	0.0026001	0.00126953	1.71579	
9.8592	0.3125	41.2586	4.96918	0.0234985	0.00366211	0.0378418	9.51555	-0.634928	40.8667	0.715168	11.2329	-1.71737	0.00268555	0.00369873	1.71737	
9.46831	-1.1875	40.0679	4.97528	0.0265503	0.0012207	-0.0088501	9.51406	-0.634712	40.8679	0.715188	11.2327	-1.71866	0.00262451	0.00325928	1.71866	
8.64309	-0.90625	40.5782	4.97833	0.0262451	0.00213623	-0.0192261	9.51253	-0.63457	40.8688	0.715204	11.2326	-1.72004	0.00258789	0.00216064	1.72004	
9.29458	-1.34375	40.8227	4.97528	0.022583	-0.0012207	0.0186157	9.51074	-0.634714	40.8694	0.715215	11.2325	-1.72172	0.00245361	0.0027832	1.72172	
14.8974	-0.34375	40.4931	4.98016	0.0241089	0.00396729	0.0244141	9.50965	-0.635069	40.8699	0.715224	11.2324	-1.72272	0.00247803	0.00351563	1.72272	
9.12085	-0.625	40.929	4.97681	0.0259399	0.00152588	-0.0204468	9.51017	-0.63543	40.8703	0.71523	11.2323	-1.72214	0.00257568	0.00355225	1.72214	
9.16428	2	40.7483	4.9765	0.0253296	0.00244141	0.0012207	9.51134	-0.635321	40.8706	0.715236	11.2323	-1.72092	0.0026123	0.00234375	1.72092	
9.59861	-0.4375	40.5569	4.97772	0.0241089	0.00366211	0.00762939	9.51231	-0.634366	40.8708	0.715239	11.2322	-1.71991	0.00267334	0.00119629	1.71991	
8.81682	-0.9375	40.9077	4.98108	0.0247192	0.00274658	0.0289917	9.51311	-0.633021	40.8709	0.715241	11.2322	-1.71909	0.00267334	0.00194092	1.71909	
8.07847	-1	39.7276	4.97925	0.0256348	0.00152588	0.0012207	9.51346	-0.631845	40.8708	0.715239	11.2322	-1.71876	0.00270996	0.00362549	1.71876	
8.3825	0.125	40.5675	4.98383	0.0247192	0.00366211	-0.0427246	9.51307	-0.630753	40.8703	0.71523	11.2323	-1.71924	0.002771	0.00112305	1.71924	
9.77234	-0.46875	41.0672	4.97894	0.0231934	0.00152588	-0.0643921	9.51216	-0.629498	40.8695	0.715217	11.2324	-1.72028	0.0027832	-0.00189209	1.72028	
2.1282	0.53125	41.1097	4.96307	0.0256348	0.00396729	0.0183105	9.51004	-0.627939	40.8689	0.715205	11.2326	-1.72251	0.00285645	-0.000793457	1.72251	
9.9895	-1.09375	40.9184	4.97681	0.0244141	0.00427246	-0.0253296	9.50582	-0.626123	40.8683	0.715196	11.2326	-1.72682	0.00288086	-0.00057373	1.72682	
9.68547	-0.53125	41.0141	4.98169	0.0259399	0.00274658	0.0460815	9.50078	-0.624321	40.8679	0.715188	11.2327	-1.73194	0.00283203	-2.44141E-005	1.73194	
9.59861	0	40.5888	4.98199	0.0228882	0.00366211	0.0405884	9.49606	-0.622529	40.8675	0.715181	11.2328	-1.73672	0.00286865	-0.000512695	1.73672	
9.90264	-0.59375	40.9715	4.98138	0.0265503	0.00457764	0.0195313	9.49164	-0.620587	40.8671	0.715173	11.2329	-1.74123	0.00294189	0.0013916	1.74123	
9.64204	-0.59375	40.9396	4.9823	0.0259399	0.00152588	0.0222778	9.48753	-0.618605	40.8666	0.715166	11.2329	-1.7454	0.00281982	0.00268555	1.7454	
8.55623	-0.03125	41.0459	4.98138	0.0198364	0.00518799	-0.0344849	9.48354	-0.616589	40.8663	0.71516	11.233	-1.74946	0.00294189	0.00239258	1.74946	
9.12085	0.625	41.1735	4.9826	0.0228882	0.00457764	-0.000610352	9.47936	-0.614266	40.8661	0.715156	11.233	-1.75367	0.00301514	0.000964355	1.75367	
10.1632	0.90625	41.0991	4.98047	0.0259399	0.0012207	-0.0500488	9.47519	-0.611313	40.866	0.715155	11.233	-1.75785	0.00280762	-0.00123291	1.75785	
8.51279	1.78125	40.8546	4.98566	0.0247192	0.00274658	0.0262451	9.47117	-0.607429	40.8661	0.715157	11.233	-1.76186	0.00283203	-0.00102539	1.76186	
8.68652	-1.375	40.6526	4.99176	0.0244141	0.00274658	-0.00274658	9.46697	-0.602824	40.8662	0.715158	11.233	-1.76604	0.00283203	0.000341797	1.76604	
7.90474	-0.84375	40.8546	4.9942	0.0241089	0.00274658	-0.000305176	9.4623	-0.598287	40.8662	0.715158	11.233	-1.77072	0.0027832	0.00057373	1.77072	
8.94712	-1.5	41.3436	4.99481	0.0256348	0.0012207	-0.0222778	9.4571	-0.594245	40.8662	0.715158	11.233	-1.77591	0.00272217	6.10352E-005	1.77591	
9.51174	-1.3125	40.7376	4.99023	0.0247192	0.00488281	0.0012207	9.45169	-0.590776	40.8663	0.715161	11.233	-1.78129	0.002771	-0.00140381	1.78129	
7.9916	-1.4375	40.9077	4.98932	0.0238037	0.0012207	0.0222778	9.44618	-0.587923	40.8665	0.715164	11.233	-1.78677	0.002771	-0.000158691	1.78677	
14.2025	-1.4375	40.9609	4.9826	0.0259399	0.00305176	0.0265503	9.44117	-0.585679	40.8667	0.715168	11.2329	-1.79175	0.00280762	0.00167236	1.79175	
9.03398	-1.46875	40.642	4.99298	0.0265503	0.00335693	-0.0256348	9.43752	-0.584046	40.8669	0.715171	11.2329	-1.79537	0.00299072	-9.76563E-005	1.79537	
8.03503	-1.21875	40.642	4.99542	0.0259399	0.00213623	-0.0387573	9.43439	-0.582976	40.867	0.715173	11.2329	-1.79848	0.00291748	-0.00262451	1.79848	
8.2522	-1.125	40.7376	4.99695	0.0234985	0.00427246	-0.00457764	9.43069	-0.582361	40.867	0.715172	11.2329	-1.80219	0.00302734	-0.00198975	1.80219	
9.51174	-0.34375	41.0034	4.98932	0.0256348	0.00488281	-0.0143433	9.42655	-0.581999	40.8669	0.71517	11.2329	-1.80634	0.003125	-0.0026123	1.80634	
9.9895	-0.34375	39.0685	4.98291	0.0247192	0.00213623	0.00396729	9.42249	-0.581622	40.8665	0.715164	11.233	-1.81046	0.00306396	-0.00275879	1.81046	
9.20771	0.15625	40.8758	4.99146	0.0210571	0.00366211	0.0125122	9.41873	-0.581033	40.8657	0.715149	11.2331	-1.81437	0.00310059	-0.00341797	1.81437	
9.29458	-1.09375	41.1629	4.9942	0.0234985	0.00366211	-0.0161743	9.4151	-0.580279	40.8646	0.715131	11.2333	-1.81818	0.00318604	-0.00411377	1.81818	
8.59966	-0.03125	41.1416	4.99237	0.0265503	0.00244141	-0.0210571	9.4114	-0.579511	40.8637	0.715115	11.2334	-1.82203	0.00313721	-0.00324707	1.82203	
9.51174	-2.71875	41.0885	4.99115	0.0241089	0.00335693	-0.027771	9.40757	-0.579012	40.863	0.715103	11.2336	-1.82598	0.00321045	-0.00178223	1.82598	
9.33801	-0.59375	41.1097	4.99237	0.0222778	0.00396729	0.0369263	9.40378	-0.579111	40.8625	0.715094	11.2336	-1.82986	0.00321045	-0.0010376	1.82986	
9.81577	-1.1875	40.9928	4.99176	0.0234985	0.00213623	0.0296021	9.40018	-0.579637	40.8621	0.715087	11.2337	-1.83352	0.003125	0.00115967	1.83352	
9.64204	0.375	41.1948	4.98566	0.0241089	0.00366211	0.0314331	9.39686	-0.580188	40.8619	0.715084	11.2337	-1.83688	0.00316162	0.00057373	1.83688	
10.641	-0.8125	41.0885	4.98657	0.0256348	0.00396729	0.00366211	9.39399	-0.580554	40.8619	0.715083	11.2337	-1.83976	0.00317383	-0.00090332	1.83976	
8.81682	-1.34375	40.7376	4.99207	0.0247192	0.00274658	-0.00915527	9.39156	-0.580949	40.8619	0.715083	11.2337	-1.84218	0.00310059	-0.00205078	1.84218	
10.5976	-1.71875	40.5994	4.99115	0.0234985	0.00213623	-0.0216675	9.38942	-0.581779	40.8619	0.715083	11.2337	-1.84433	0.003125	-0.00380859	1.84433	
8.94712	-0.53125	40.8546	4.9939	0.0247192	0.00396729	0.0109863	9.38756	-0.583043	40.8618	0.715082	11.2338	-1.84619	0.00307617	-0.00198975	1.84619	
8.64309	0.15625	40.8227	4.98993	0.0234985	0.00152588	0.0695801	9.38571	-0.584309	40.8617	0.715079	11.2338	-1.84807	0.0029541	0.000817871	1.84807	
9.51174	-1.34375	41.0353	4.98871	0.0231934	0.0012207	0.00152588	9.38364	-0.58541	40.8615	0.715077	11.2338	-1.85016	0.0029541	0.00288086	1.85016	
9.51174	-1.125	40.727	4.9942	0.0265503	0.00274658	0.00152588	9.38159	-0.586677	40.8614	0.715075	11.2338	-1.85223	0.0029541	0.00189209	1.85223	
8.72996	-1.21875	42.5769	4.98749	0.0259399	0.00213623	-0.0119019	9.37958	-0.588282	40.8616	0.715078	11.2338	-1.85422	0.00292969	0.00152588	1.85422	
9.29458	-1.21875	40.9609	4.99176	0.022583	0.0012207	-0.0213623	9.37743	-0.590208	40.8623	0.71509	11.2337	-1.85624	0.00286865	0.000683594	1.85624	
7.20981	-1.6875	40.727	4.98962	0.0244141	0.00213623	-0.0149536	9.3749	-0.592529	40.8632	0.715106	11.2335	-1.85861	0.00290527	0.000976563	1.85861	
11.0319	-1.71875	40.5994	4.98993	0.0259399	0.00274658	-0.0326538	9.37204	-0.595381	40.864	0.715121	11.2334	-1.86134	0.00281982	-0.000378418	1.86134	
10.0329	0.28125	40.9928	4.98505	0.0247192	0.00213623	0.0231934	9.36955	-0.598515	40.8648	0.715133	11.2333	-1.8637	0.00285645	-0.000341797	1.8637	
10.7279	0.46875	41.1948	4.9826	0.0210571	0.00457764	0.0512695	9.36782	-0.601275	40.8655	0.715146	11.2331	-1.8653	0.00291748	0.000646973	1.8653	
10.2067	-0.1875	40.8121	4.98322	0.0241089	0.00152588	0.00396729	9.36681	-0.603406	40.8663	0.715161	11.233	-1.86617	0.00284424	0.00183105	1.86617	
10.2067	-0.375	40.7376	4.98108	0.0259399	0.00213623	-0.0149536	9.36644	-0.605131	40.8672	0.715175	11.2328	-1.8664	0.00284424	0.0027832	1.8664	
9.64204	-0.21875	41.0353	4.98627	0.0256348	0.00427246	-0.0299072	9.36652	-0.6066	40.8679	0.715189	11.2327	-1.8662	0.00284424	0.00177002	1.8662	
9.81577	-0.15625	40.8333	4.98291	0.0247192	0.00488281	0.0332642	9.36687	-0.607791	40.8687	0.715202	11.2326	-1.86571	0.00284424	0.00367432	1.86571	
7.20981	-0.625	40.9715	4.98322	0.0210571	0.0012207	0.00213623	9.36707	-0.608743	40.8695	0.715216	11.2325	-1.86539	0.00280762	0.00360107	1.86539	
9.8592	0.46875	40.8333	4.9826	0.0241089	0.00457764	0.00427246	9.36673	-0.60943	40.8702	0.715229	11.2323	-1.86559	0.00284424	0.00327148	1.86559	
10.0329	-1.71875	40.9396	4.9765	0.0241089	0.00213623	-0.0338745	9.36632	-0.609932	40.871	0.715242	11.2322	-1.86587	0.0027832	0.00256348	1.86587	
10.7713	0.15625	41.0672	4.97375	0.022583	0.00152588	-0.00457764	9.36644	-0.610475	40.8717	0.715255	11.2321	-1.86563	0.00274658	0.00322266	1.86563	
9.33801	-1.03125	40.9715	4.98077	0.0265503	0.00366211	-0.0384521	9.36708	-0.610998	40.8726	0.71527	11.2319	-1.86484	0.00275879	0.00279541	1.86484	
8.77339	-1.71875	40.9077	4.97955	0.0259399	0.00244141	-0.00366211	9.36781	-0.611686	40.8734	0.715285	11.2318	-1.86396	0.00269775	0.00117188	1.86396	
8.33906	-0.8125	40.727	4.97711	0.0247192	0.00213623	0.0466919	9.36818	-0.61279	40.8743	0.7153	11.2316	-1.86345	0.00269775	0.00185547	1.86345	
10.6844	-0.53125	40.8121	4.98108	0.0228882	0.00335693	0.032959	9.36832	-0.614076	40.875	0.715313	11.2315	-1.86318	0.00268555	0.0019165	1.86318	
14.3762	-1.46875	40.6951	4.97864	0.0250244	0.00152588	0.0131226	9.36948	-0.615455	40.8757	0.715325	11.2314	-1.8619	0.00258789	0.00229492	1.8619	
9.46831	-0.625	40.727	4.97894	0.0256348	0.00274658	0.0473022	9.37237	-0.617039	40.8763	0.715335	11.2313	-1.85892	0.00258789	0.00455322	1.85892	
9.59861	-7.0625	40.7589	4.98199	0.0216675	0.00274658	0.00427246	9.37601	-0.619702	40.8767	0.715342	11.2312	-1.85521	0.0026123	0.00559082	1.85521	
9.55518	-0.84375	40.9396	4.97681	0.0247192	0.00213623	-0.0396729	9.37963	-0.624307	40.8771	0.715349	11.2312	-1.85152	0.00253906	0.00356445	1.85152	
8.94712	-1.28125	40.1529	4.97681	0.0265503	0.00213623	-0.0088501	9.38314	-0.62992	40.8773	0.715353	11.2311	-1.84797	0.00256348	0.000427246	1.84797	
8.99055	-1.375	40.4718	4.98108	0.0259399	0.00457764	-0.0213623	9.38637	-0.635688	40.8773	0.715353	11.2311	-1.84475	0.00269775	-0.000488281	1.84475	
10.0764	-0.28125	40.8227	4.97284	0.0247192	-0.0012207	-0.00213623	9.38939	-0.641529	40.877	0.715348	11.2312	-1.84177	0.00253906	-0.000634766	1.84177	
10.0329	0.6875	40.8971	4.96857	0.0216675	0.00274658	-0.0439453	9.39256	-0.646962	40.8767	0.715342	11.2312	-1.83866	0.00256348	-0.0019165	1.83866	
10.5976	-0.4375	41.0459	4.97589	0.0250244	0.00335693	-0.0305176	9.39611	-0.651702	40.8763	0.715336	11.2313	-1.83516	0.00264893	-0.00228271	1.83516	
9.25115	-0.71875	40.9396	4.9707	0.0259399	0.00244141	-0.0204468	9.39999	-0.656012	40.8761	0.715332	11.2313	-1.83132	0.00266113	-0.00250244	1.83132	
10.1198	-0.15625	40.7376	4.97284	0.0231934	0.00305176	0.0128174	9.40398	-0.66008	40.8759	0.715328	11.2314	-1.82737	0.00267334	-0.000683594	1.82737	
9.68547	-0.28125	41.0141	4.97345	0.0228882	0.00213623	0.0442505	9.40808	-0.6638	40.8757	0.715325	11.2314	-1.82331	0.00267334	0.000158691	1.82331	
10.337	0.03125	40.4612	4.97284	0.0253296	0.00152588	0.043335	9.41237	-0.667085	40.8755	0.715321	11.2314	-1.81905	0.00255127	-0.000158691	1.81905	
9.64204	0.09375	40.9396	4.97223	0.0222778	0.00213623	0.0180054	9.41688	-0.66986	40.8751	0.715315	11.2315	-1.8146	0.00257568	0.000402832	1.8146	
11.6399	0.40625	41.0353	4.96857	0.0234985	0.0012207	-0.0012207	9.42179	-0.672026	40.8748	0.715309	11.2315	-1.80975	0.00253906	0.000952148	1.80975	
6.51489	0.875	41.0034	4.96552	0.0247192	0.000915527	-0.0479126	9.4268	-0.673422	40.8745	0.715304	11.2316	-1.80479	0.00240479	0.000231934	1.80479	
8.86025	-1.0625	40.6313	4.97101	0.0241089	0.00213623	-0.0454712	9.43098	-0.674183	40.8743	0.715301	11.2316	-1.80064	0.00229492	-0.00291748	1.80064	
8.64309	3	40.5144	4.97711	0.0228882	0.00366211	-0.0158691	9.43427	-0.674227	40.874	0.715295	11.2317	-1.7974	0.00239258	-0.0036377	1.7974	
8.51279	-0.71875	40.4931	4.97772	0.0247192	0.00152588	-0.000915527	9.43696	-0.673196	40.8735	0.715286	11.2318	-1.7948	0.00227051	-0.00384521	1.7948	
7.38354	-0.4375	40.8546	4.97528	0.0250244	0.0012207	-0.0354004	9.43884	-0.671609	40.8728	0.715275	11.2319	-1.79304	0.00223389	-0.00390625	1.79304	
9.9895	-0.71875	41.62	4.97437	0.0247192	0.00274658	0.00152588	9.43995	-0.670019	40.8722	0.715264	11.232	-1.79203	0.00228271	-0.00366211	1.79203	
7.38354	-0.21875	40.7376	4.97406	0.0253296	0.00213623	0.027771	9.44055	-0.668394	40.8719	0.715258	11.232	-1.79149	0.00222168	-0.00101318	1.79149	
9.51174	-0.1875	40.6207	4.97528	0.0241089	0.00274658	0.0338745	9.44059	-0.66662	40.8715	0.715252	11.2321	-1.7915	0.00223389	0.000488281	1.7915	
5.8634	-1.3125	40.6845	4.9707	0.0271606	0.00213623	0.0088501	9.43978	-0.664789	40.8711	0.715244	11.2322	-1.79239	0.00223389	-0.00102539	1.79239	
8.07847	-1.40625	40.5888	4.97894	0.0265503	0.00274658	0.000305176	9.43769	-0.663265	40.8706	0.715235	11.2323	-1.79458	0.00220947	-0.00233154	1.79458	
8.07847	-4.1875	40.4293	4.97772	0.0231934	0.00274658	0.00854492	9.43448	-0.662671	40.8698	0.715222	11.2324	-1.79791	0.0022583	-0.00251465	1.79791	
9.68547	0.1875	40.8227	4.97223	0.0222778	0.00457764	-0.0259399	9.43079	-0.663176	40.8689	0.715206	11.2325	-1.80175	0.00233154	-0.00544434	1.80175	
10.1632	-0.5625	41.0353	4.97253	0.0247192	0.00213623	-0.0167847	9.42722	-0.66393	40.868	0.71519	11.2327	-1.80548	0.00230713	-0.00628662	1.80548	
7.90474	0.34375	40.9184	4.97406	0.0234985	0.00274658	-0.0280762	9.4238	-0.664338	40.8672	0.715176	11.2328	-1.80904	0.00233154	-0.00582275	1.80904	
8.33906	-0.34375	40.8546	4.97925	0.0228882	0.00488281	0.00396729	9.41997	-0.664353	40.8664	0.715163	11.233	-1.813	0.00244141	-0.00531006	1.813	
9.64204	-0.8125	40.8865	4.98047	0.0253296	0.00274658	0.0378418	9.41575	-0.664135	40.8657	0.71515	11.2331	-1.81735	0.00236816	-0.00294189	1.81735	
9.20771	-0.375	40.8546	4.98138	0.0234985	0.00274658	0.00762939	9.41154	-0.663876	40.865	0.715138	11.2332	-1.82167	0.00252686	-0.00255127	1.82167	
9.33801	0.65625	40.8758	4.97803	0.0244141	0.00366211	0.038147	9.40744	-0.663355	40.8643	0.715126	11.2333	-1.82589	0.00256348	0.000732422	1.82589	
9.72891	0.03125	40.8227	4.98077	0.0234985	0.00213623	-0.00701904	9.40348	-0.662289	40.8637	0.715114	11.2334	-1.82996	0.00251465	0.00167236	1.82996	
9.90264	0.4375	41.4287	4.97681	0.0234985	0.00366211	0.000305176	9.39982	-0.660671	40.8631	0.715105	11.2335	-1.83371	0.00256348	0.00250244	1.83371	
10.4238	0.46875	40.3443	4.9765	0.0256348	0.00152588	-0.0421143	9.39666	-0.658486	40.8627	0.715097	11.2336	-1.83694	0.00250244	0.000305176	1.83694	
9.03398	-1.09375	40.7589	4.98535	0.0259399	0.0012207	-0.00305176	9.39396	-0.655925	40.8622	0.715088	11.2337	-1.83974	0.00246582	-0.00158691	1.83974	
8.51279	-2.15625	40.7164	4.99176	0.0247192	-0.00274658	0.0296021	9.39125	-0.653647	40.8615	0.715077	11.2338	-1.84255	0.00229492	-0.00213623	1.84255	
10.5107	-1.0625	40.5144	4.98901	0.0256348	0.00427246	0.0582886	9.38849	-0.652047	40.8608	0.715064	11.2339	-1.84544	0.00238037	-0.000524902	1.84544	
6.77549	-1.46875	40.7483	4.99146	0.0238037	0.00183105	0.017395	9.38563	-0.650991	40.86	0.715049	11.2341	-1.84844	0.00240479	0.000219727	1.84844	
8.33906	2.90625	40.8333	4.98932	0.0244141	0.00152588	-0.0271606	9.38208	-0.649736	40.859	0.715033	11.2342	-1.85216	0.0024292	0.0010498	1.85216	
9.55518	-0.625	40.6207	4.98657	0.022583	0.00335693	0.0167847	9.37794	-0.647546	40.8581	0.715017	11.2344	-1.85645	0.00247803	0.00354004	1.85645	
8.90369	-0.78125	41.2479	4.98657	0.0271606	0.00305176	0.0296021	9.37377	-0.644894	40.8572	0.715	11.2346	-1.86078	0.00245361	0.00535889	1.86078	
8.64309	-0.53125	40.6738	4.9881	0.0256348	0.00274658	0.00518799	9.36952	-0.642357	40.8563	0.714986	11.2347	-1.86518	0.00250244	0.00560303	1.86518	
8.42593	-1.6875	40.6207	4.99023	0.0241089	0.00274658	0.0164795	9.36497	-0.640057	40.8555	0.714971	11.2348	-1.86987	0.00256348	0.00767822	1.86987	
7.47041	-2.125	40.6632	4.9942	0.0265503	0.00152588	-0.0131226	9.35988	-0.638377	40.8545	0.714955	11.235	-1.87512	0.00251465	0.00709229	1.87512	
1.17268	-1	41.131	4.97345	0.0244141	0.00244141	-0.0256348	9.35297	-0.637435	40.8536	0.714938	11.2352	-1.8822	0.00252686	0.00495605	1.8822	
9.77234	-0.125	41.2479	4.98657	0.0234985	0.00488281	0.010376	9.34353	-0.63679	40.8528	0.714923	11.2353	-1.89177	0.0026123	0.00401611	1.89177	
9.94607	-0.46875	41.1097	4.98657	0.0247192	0.00213623	-0.0305176	9.33338	-0.636038	40.8522	0.714913	11.2354	-1.90202	0.0026123	0.00244141	1.90202	
9.55518	-0.375	40.8758	4.98749	0.0241089	0.00335693	-0.0283813	9.32388	-0.635142	40.8518	0.714906	11.2355	-1.91159	0.00263672	0.00129395	1.91159	
8.77339	-1.09375	41.0672	4.99359	0.0247192	0.00366211	-0.0228882	9.3148	-0.634241	40.8515	0.714901	11.2355	-1.92073	0.00267334	3.66211E-005	1.92073	
8.68652	-0.90625	41.0141	4.99146	0.0253296	0.00274658	0	9.3058	-0.633516	40.8512	0.714897	11.2356	-1.92976	0.0026001	0.00107422	1.92976	
7.73101	-0.5625	40.9822	4.9881	0.0222778	0.00518799	0.000915527	9.2966	-0.632962	40.8512	0.714895	11.2356	-1.93898	0.00272217	0.00178223	1.93898	
9.68547	-0.75	40.9928	4.99146	0.0241089	0.00335693	0.00305176	9.2872	-0.632466	40.8511	0.714895	11.2356	-1.94838	0.00274658	0.00302734	1.94838	
10.2067	0.28125	41.131	4.99329	0.0250244	0.00213623	-0.0180054	9.27815	-0.63187	40.8512	0.714897	11.2356	-1.95741	0.00263672	0.00214844	1.95741	
10.2935	1.65625	40.9822	4.98901	0.0250244	0.00274658	-0.00427246	9.26993	-0.630676	40.8515	0.714901	11.2355	-1.9656	0.00263672	0.000463867	1.9656	
9.29458	-0.78125	40.7695	4.99634	0.0241089	0.00335693	-0.00213623	9.26246	-0.628696	40.8518	0.714906	11.2355	-1.97302	0.00266113	7.32422E-005	1.97302	
8.2522	-1.28125	40.8546	4.99634	0.0265503	0.00274658	0.0436401	9.25526	-0.626579	40.852	0.714911	11.2354	-1.98016	0.00262451	0.000292969	1.98016	
8.3825	-1.1875	40.6207	4.99298	0.0253296	0.00152588	0.0167847	9.24788	-0.62485	40.8523	0.714914	11.2354	-1.98751	0.0026001	0.00124512	1.98751	
9.12085	-1.46875	40.9184	4.99023	0.0228882	0.00335693	0.0378418	9.24031	-0.623588	40.8524	0.714917	11.2354	-1.99505	0.00258789	0.00274658	1.99505	
9.03398	-1.1875	40.9077	4.99268	0.027771	0.000915527	-0.0411987	9.2328	-0.622808	40.8525	0.714919	11.2353	-2.00254	0.00256348	0.0027832	2.00254	
15.4186	-0.84375	40.9609	4.99603	0.0244141	0.00274658	-0.00274658	9.22644	-0.622396	40.8527	0.714922	11.2353	-2.00887	0.00262451	0.00279541	2.00887	
9.29458	-1.3125	40.6845	4.99329	0.0247192	0.00305176	-0.0180054	9.2222	-0.622262	40.8529	0.714926	11.2353	-2.01308	0.00285645	0.000891113	2.01308	
8.1219	-1.21875	40.8546	4.99298	0.0265503	0.00274658	-0.00823975	9.21892	-0.622474	40.853	0.714928	11.2353	-2.01633	0.00279541	-0.00177002	2.01633	
8.1219	-1.3125	40.7164	4.99237	0.0247192	0.0012207	-0.0158691	9.21526	-0.623077	40.8531	0.71493	11.2352	-2.01998	0.002771	-0.00310059	2.01998	
8.55623	-1.53125	40.3655	4.99237	0.0241089	0.00457764	0.0305176	9.21111	-0.624106	40.8531	0.714929	11.2352	-2.02413	0.00289307	-0.000793457	2.02413	
9.77234	-0.5	39.6745	4.98169	0.0234985	0.00213623	0.0088501	9.20683	-0.625469	40.8527	0.714923	11.2353	-2.02848	0.00284424	-0.00111084	2.02848	
9.51174	0.125	41.2479	4.97772	0.0228882	0.00335693	0.00366211	9.20281	-0.626769	40.852	0.714909	11.2354	-2.03263	0.00285645	-0.00214844	2.03263	
9.64204	-0.21875	41.0885	4.98749	0.0247192	0.00335693	-0.0320435	9.19919	-0.627707	40.8512	0.714896	11.2356	-2.03638	0.00288086	-0.0036377	2.03638	
4.47356	-0.90625	41.0885	4.97559	0.0265503	0.00305176	0.0146484	9.19515	-0.628413	40.8507	0.714887	11.2357	-2.04051	0.00289307	-0.00371094	2.04051	
9.03398	-2.8125	40.929	4.98535	0.0244141	0.00152588	0.00793457	9.18982	-0.629455	40.8503	0.71488	11.2357	-2.0459	0.00289307	-0.00286865	2.0459	
10.5107	-0.625	40.8227	4.98444	0.0241089	0.00213623	0.010376	9.18411	-0.63118	40.8499	0.714874	11.2358	-2.05167	0.00288086	-0.00142822	2.05167	
9.94607	-1.34375	40.6951	4.98169	0.0247192	0.00152588	0.0286865	9.17911	-0.633292	40.8496	0.714868	11.2358	-2.05674	0.00274658	-0.000695801	2.05674	
10.5541	-0.34375	41.2586	4.98169	0.0222778	0.00274658	-0.00946045	9.17493	-0.635505	40.8493	0.714862	11.2359	-2.06096	0.002771	0.000146484	2.06096	
10.641	0.03125	40.9396	4.97925	0.0231934	0.00335693	0.017395	9.17168	-0.637556	40.8491	0.714859	11.2359	-2.06425	0.002771	0.00197754	2.06425	
10.337	-0.28125	41.0778	4.97345	0.0259399	0.00518799	0.00366211	9.16939	-0.639228	40.849	0.714858	11.2359	-2.06655	0.00283203	0.00303955	2.06655	
10.6844	-0.59375	40.8865	4.98413	0.0259399	0.00213623	0.00305176	9.16801	-0.640618	40.8491	0.714858	11.2359	-2.06792	0.00280762	0.00316162	2.06792	
7.90474	-0.6875	40.7376	4.98505	0.0253296	0.00396729	0.0289917	9.16714	-0.641897	40.8491	0.714859	11.2359	-2.06879	0.00275879	0.00428467	2.06879	
9.77234	1.625	40.7695	4.97864	0.0244141	0.00213623	0.00854492	9.16623	-0.642787	40.8491	0.71486	11.2359	-2.0697	0.00270996	0.00450439	2.0697	
9.64204	-0.625	40.8652	4.9765	0.0250244	0.00213623	-0.0296021	9.16541	-0.642946	40.8491	0.714859	11.2359	-2.07051	0.00270996	0.00404053	2.07051	
9.33801	-0.6875	40.7057	4.98047	0.0247192	0.00396729	-0.0180054	9.1649	-0.642749	40.8491	0.714859	11.2359	-2.07103	0.00275879	0.00349121	2.07103	
9.94607	-0.375	41.7583	4.97711	0.0241089	0.00152588	-0.0204468	9.16465	-0.642528	40.8491	0.71486	11.2359	-2.07127	0.00268555	0.00275879	2.07127	
9.29458	-0.21875	40.9077	4.97833	0.0241089	0.00366211	0.0216675	9.1647	-0.642173	40.8494	0.714865	11.2359	-2.07117	0.00272217	0.00187988	2.07117	
7.42698	-0.84375	40.7483	4.97772	0.0259399	0.00274658	0.0570679	9.16464	-0.641689	40.8499	0.714873	11.2358	-2.07115	0.002771	0.00349121	2.07115	
15.4186	-1.53125	40.7164	4.97284	0.0265503	0.0012207	0.00610352	9.16504	-0.641357	40.8503	0.71488	11.2357	-2.07069	0.00268555	0.00222168	2.07069	
8.55623	-0.9375	40.7376	4.97589	0.0247192	0.00152588	-0.0271606	9.16699	-0.64139	40.8506	0.714885	11.2357	-2.06868	0.00270996	0.0027832	2.06868	
7.8613	-0.5	40.9928	4.97284	0.0231934	0.00305176	-0.00579834	9.16946	-0.64163	40.8508	0.71489	11.2356	-2.06617	0.00272217	0.00266113	2.06617	
9.90264	0.53125	40.9928	4.96948	0.0253296	0.00152588	-0.00854492	9.17145	-0.641682	40.8511	0.714895	11.2356	-2.06413	0.00266113	0.00303955	2.06413	
9.46831	-0.5625	40.8333	4.97101	0.0234985	0.00457764	0.0250244	9.17345	-0.641333	40.8515	0.714901	11.2355	-2.06207	0.00273437	0.00437012	2.06207	
9.77234	-0.375	40.7057	4.96979	0.0256348	0.00274658	0.0128174	9.17567	-0.640749	40.8518	0.714907	11.2355	-2.0598	0.00279541	0.00551758	2.0598	
9.55518	-0.96875	40.6632	4.97192	0.027771	0.00457764	-0.00274658	9.1781	-0.640142	40.8521	0.714911	11.2354	-2.05732	0.00279541	0.00418701	2.05732	
9.20771	-0.4375	40.8652	4.97528	0.0241089	0.00274658	-0.00640869	9.18066	-0.639585	40.8522	0.714914	11.2354	-2.05473	0.00281982	0.00357666	2.05473	
9.33801	0.3125	40.9184	4.97498	0.0247192	0.00427246	0.00640869	9.18322	-0.638889	40.8524	0.714916	11.2354	-2.05215	0.00285645	0.00368652	2.05215	
9.42488	-2	40.7908	4.96979	0.0228882	0.00213623	0.0012207	9.18579	-0.638101	40.8525	0.714919	11.2353	-2.04956	0.00280762	0.00501709	2.04956	
10.7279	0.875	41.2161	4.9704	0.0259399	0.00274658	0.00183105	9.1886	-0.637381	40.8527	0.714922	11.2353	-2.04672	0.00279541	0.00450439	2.04672	
11.1188	-0.03125	40.9609	4.96826	0.0253296	0.00396729	-0.00976563	9.19212	-0.636335	40.853	0.714927	11.2353	-2.04314	0.00289307	0.00379639	2.04314	
7.42698	-0.59375	40.6526	4.97528	0.0234985	0.0012207	0.00946045	9.19609	-0.634896	40.8533	0.714933	11.2352	-2.03912	0.00285645	0.00375977	2.03912	
9.29458	-1.34375	40.5356	4.97589	0.0256348	0.00152588	-0.0164795	9.19968	-0.633511	40.8536	0.714937	11.2352	-2.03548	0.00285645	0.00195313	2.03548	
10.1632	-0.78125	40.7057	4.97681	0.0247192	0.00366211	-0.00946045	9.20305	-0.632411	40.8537	0.714939	11.2352	-2.0321	0.00289307	0.00195313	2.0321	
12.7692	-1.21875	40.7376	4.97925	0.0259399	0.00152588	0.017395	9.20717	-0.631598	40.8536	0.714938	11.2352	-2.02799	0.00281982	0.00195313	2.02799	
9.20771	-0.53125	40.727	4.97681	0.0231934	0.00152588	0.0177002	9.21239	-0.631003	40.8535	0.714936	11.2352	-2.02278	0.00267334	0.00251465	2.02278	
9.46831	-3.1875	40.7908	4.97375	0.0241089	0.00335693	0.0491333	9.21803	-0.630885	40.8533	0.714933	11.2352	-2.01718	0.00272217	0.00435791	2.01718	
9.8592	-0.96875	41.0885	4.97833	0.0262451	0.00213623	0.0198364	9.22364	-0.631602	40.8532	0.71493	11.2352	-2.01159	0.00264893	0.0039917	2.01159	
9.42488	-1.15625	40.4081	4.97833	0.0259399	0.00213623	-0.0216675	9.22933	-0.632876	40.853	0.714927	11.2353	-2.00594	0.00264893	0.0027832	2.00594	
7.9916	-1	41.3862	4.97955	0.0256348	0.00427246	-0.0140381	9.23478	-0.634377	40.8528	0.714924	11.2353	-2.00052	0.00273437	0.00340576	2.00052	
7.73101	-1.65625	40.6526	4.98077	0.027771	0.000915527	-0.0100708	9.23945	-0.636179	40.8527	0.714922	11.2353	-1.99587	0.0026123	0.00372314	1.99587	
8.81682	-0.59375	40.9609	4.97223	0.0247192	0.00335693	-0.0354004	9.24323	-0.638284	40.8526	0.714921	11.2353	-1.9921	0.00268555	0.003125	1.9921	
10.5541	-0.625	41.0353	4.96246	0.0234985	0.00518799	-0.0259399	9.24672	-0.640458	40.8526	0.71492	11.2353	-1.98862	0.00274658	0.0012207	1.98862	
9.72891	-0.34375	40.9715	4.97894	0.0241089	0.0012207	-0.0466919	9.2505	-0.642498	40.8526	0.714921	11.2353	-1.98483	0.00268555	-0.00292969	1.98483	
9.25115	-0.71875	40.8758	4.97711	0.0265503	0.00213623	0.0274658	9.25449	-0.644382	40.8527	0.714923	11.2353	-1.98081	0.00272217	-0.0020752	1.98081	
9.29458	-0.59375	41.0141	4.97955	0.0256348	0.00366211	0.00427246	9.25843	-0.64617	40.8529	0.714926	11.2353	-1.97685	0.00280762	-0.000817871	1.97685	
9.90264	-0.8125	40.9077	4.98352	0.0228882	0.00335693	0.0283813	9.26234	-0.647916	40.8531	0.71493	11.2352	-1.9729	0.00281982	0.000549316	1.9729	
8.81682	-0.8125	40.9928	4.97589	0.0231934	0.00274658	-0.00946045	9.26624	-0.649669	40.8534	0.714935	11.2352	-1.96895	0.00286865	0.000512695	1.96895	
11.0319	-0.375	41.0459	4.98138	0.0228882	0.00457764	-0.00335693	9.27025	-0.651395	40.8538	0.714941	11.2351	-1.96488	0.00286865	-0.000622559	1.96488	
6.42803	0.125	41.131	4.97955	0.0250244	0.00183105	0.0012207	9.27415	-0.652878	40.8542	0.714949	11.2351	-1.96091	0.00283203	-0.00108643	1.96091	
9.81577	0.59375	40.9609	4.97589	0.0238037	0.00213623	-0.0247192	9.27738	-0.653832	40.8548	0.714959	11.235	-1.95757	0.00273437	-0.00196533	1.95757	
8.59966	0.125	40.7908	4.98566	0.0241089	0.00335693	-0.0735474	9.28013	-0.654124	40.8554	0.71497	11.2348	-1.95472	0.00275879	-0.00465088	1.95472	
7.47041	-1.15625	40.6313	4.9881	0.0259399	0.00701904	-0.00823975	9.28236	-0.654049	40.856	0.71498	11.2347	-1.95239	0.00286865	-0.00523682	1.95239	
7.94817	-1.09375	40.8865	4.98749	0.0259399	0.00213623	-0.0149536	9.28365	-0.654079	40.8565	0.714988	11.2347	-1.95102	0.00286865	-0.00588379	1.95102	
8.1219	-1.59375	41.4499	4.98932	0.0247192	0.00305176	0.0778198	9.28401	-0.654468	40.857	0.714997	11.2346	-1.95057	0.00288086	-0.00284424	1.95057	
8.77339	-0.28125	40.6632	4.99054	0.0222778	0.0012207	0.0265503	9.28372	-0.655145	40.8576	0.715009	11.2345	-1.95075	0.002771	-0.0013916	1.95075	
11.0319	-0.53125	40.6845	4.99237	0.0262451	0.00335693	0.0308228	9.28337	-0.655809	40.8583	0.71502	11.2344	-1.95099	0.00285645	-0.000537109	1.95099	
14.4196	-1.03125	40.7483	4.99084	0.0265503	0.00335693	0.00213623	9.28429	-0.656411	40.8588	0.715029	11.2343	-1.94998	0.00292969	0.00020752	1.94998	
7.94817	-1.375	40.7695	4.9884	0.0244141	0.00427246	-0.0262451	9.28683	-0.657201	40.8592	0.715037	11.2342	-1.94737	0.0029541	-0.000463867	1.94737	
7.47041	-7.625	40.6207	4.99359	0.0283813	0.00213623	-0.0198364	9.28939	-0.659325	40.8596	0.715042	11.2341	-1.94476	0.00297852	-0.00195313	1.94476	
7.81787	-1.59375	40.7376	4.9939	0.0253296	0.00457764	-0.017395	9.29085	-0.663792	40.8598	0.715046	11.2341	-1.94325	0.00310059	-0.00335693	1.94325	
10.2067	-0.875	40.7695	4.9881	0.0231934	0.00396729	0.00305176	9.29167	-0.669504	40.8599	0.715048	11.2341	-1.94242	0.003125	-0.0052002	1.94242	
10.3804	-0.53125	41.1735	4.98718	0.0244141	0.00244141	-0.00762939	9.29268	-0.675203	40.86	0.71505	11.2341	-1.94139	0.00313721	-0.00629883	1.94139	
8.59966	-0.46875	41.1097	4.99054	0.0247192	-0.000915527	-0.027771	9.29403	-0.680657	40.8602	0.715054	11.234	-1.94	0.00301514	-0.00654297	1.94	
9.55518	-0.59375	40.9715	4.99115	0.0262451	0.00183105	-0.0427246	9.29533	-0.685818	40.8606	0.71506	11.234	-1.93864	0.00291748	-0.00769043	1.93864	
9.29458	-1.59375	40.9609	5.00122	0.0247192	0.00213623	0.00610352	9.29655	-0.690878	40.861	0.715068	11.2339	-1.93734	0.00296631	-0.00704346	1.93734	
8.59966	-0.78125	40.9396	4.99237	0.0231934	0.00274658	0.0283813	9.29766	-0.696039	40.8615	0.715077	11.2338	-1.93615	0.00294189	-0.00449219	1.93615	
9.46831	-0.3125	40.9077	4.98749	0.0247192	0.00335693	0.0671387	9.29854	-0.701127	40.862	0.715086	11.2337	-1.93518	0.00286865	-0.000769043	1.93518	
8.94712	-0.21875	41.1097	4.99054	0.0241089	0.00396729	0.0473022	9.29928	-0.705854	40.8626	0.715095	11.2336	-1.93434	0.00297852	0.00299072	1.93434	
10.641	0.125	40.7802	4.98993	0.0247192	0.0012207	0.0375366	9.30012	-0.710075	40.8632	0.715106	11.2335	-1.9334	0.00294189	0.00339355	1.9334	
10.337	-0.5625	40.9396	4.98505	0.0241089	0.00427246	0.00701904	9.30146	-0.713791	40.8638	0.715117	11.2334	-1.93196	0.00296631	0.00350342	1.93196	
9.64204	-1.875	40.7376	4.99268	0.0271606	0.00213623	-0.0149536	9.30333	-0.717379	40.8644	0.715127	11.2333	-1.92999	0.00291748	0.00177002	1.92999	
4.1261	-1.34375	40.727	4.99481	0.0265503	0.000610352	-0.0323486	9.30459	-0.721275	40.8649	0.715136	11.2332	-1.92864	0.00283203	0.000854492	1.92864	
7.73101	-1.34375	40.7483	4.99237	0.0253296	0.00213623	0.020752	9.30401	-0.725503	40.8653	0.715143	11.2332	-1.92914	0.00273437	0.00181885	1.92914	
9.46831	3.09375	41.0247	4.99329	0.0234985	0.00213623	0.0192261	9.30219	-0.729279	40.8657	0.71515	11.2331	-1.9309	0.00274658	0.00253906	1.9309	
8.86025	-1.59375	40.9396	4.99023	0.0259399	0.00213623	0.00396729	9.30017	-0.731966	40.8661	0.715157	11.233	-1.93285	0.00274658	0.00368652	1.93285	
8.99055	-0.96875	41.1948	4.99176	0.0238037	0.000915527	-0.0244141	9.29806	-0.73427	40.8666	0.715165	11.2329	-1.93488	0.00264893	0.00565186	1.93488	
8.81682	-1.21875	41.9496	4.99054	0.0241089	0.00213623	-0.0302124	9.29579	-0.736775	40.8673	0.715178	11.2328	-1.93702	0.00245361	0.00477295	1.93702	
8.33906	-1.59375	40.8014	4.99207	0.0283813	0.00213623	0.017395	9.29325	-0.73951	40.8684	0.715198	11.2326	-1.93937	0.00245361	0.00606689	1.93937	
8.86025	-1.71875	40.5144	4.9826	0.0268555	0.00305176	-0.00518799	9.29037	-0.742642	40.8696	0.715218	11.2324	-1.94206	0.00245361	0.00274658	1.94206	
2.43223	-1.09375	40.6845	4.99908	0.0216675	0.00366211	-0.0369263	9.28623	-0.746154	40.8706	0.715235	11.2323	-1.94603	0.00255127	0.00020752	1.94603	
9.94607	-1.3125	41.1523	4.98352	0.0256348	0.00396729	0.0088501	9.28016	-0.749889	40.8714	0.71525	11.2321	-1.95196	0.00257568	-0.000671387	1.95196	
10.8582	-1.59375	41.3117	4.9826	0.0256348	0.0012207	-0.0271606	9.27368	-0.753853	40.8724	0.715266	11.232	-1.95827	0.00249023	-0.00184326	1.95827	
9.64204	-0.53125	41.0885	4.98291	0.0265503	0.00152588	0.0012207	9.26809	-0.757991	40.8735	0.715286	11.2318	-1.96367	0.00238037	-0.000744629	1.96367	
8.86025	-1.3125	40.9822	4.98627	0.0241089	0.0012207	-0.0152588	9.26299	-0.76213	40.8748	0.715308	11.2315	-1.96856	0.00234375	-0.000561523	1.96856	
9.68547	-0.96875	40.8546	4.98566	0.0234985	0.00244141	0.0524902	9.25806	-0.766292	40.876	0.71533	11.2313	-1.97327	0.0022583	0.00223389	1.97327	
8.94712	-0.53125	41.0141	4.98444	0.0247192	0.00366211	0.0363159	9.25333	-0.770419	40.8773	0.715352	11.2311	-1.97779	0.00224609	0.00356445	1.97779	
9.9895	-0.40625	40.9609	4.98383	0.0231934	0.00274658	0.0320435	9.24885	-0.774303	40.8785	0.715374	11.2309	-1.98205	0.0022583	0.00515137	1.98205	
9.51174	-0.03125	40.9077	4.98993	0.0231934	0.00213623	-0.0408936	9.24476	-0.777783	40.8798	0.715397	11.2307	-1.98593	0.00238037	0.00462646	1.98593	
9.64204	0.21875	41.1948	4.97467	0.0265503	0.00396729	-0.0204468	9.24106	-0.780698	40.8811	0.715419	11.2305	-1.9894	0.00246582	0.00551758	1.9894	
11.3793	0.4375	41.0459	4.98016	0.0247192	0.00213623	-0.012207	9.238	-0.782896	40.8825	0.715443	11.2302	-1.99223	0.00246582	0.00478516	1.99223	
9.81577	-1.75	40.8546	4.97864	0.0244141	0.00213623	-0.0259399	9.23585	-0.784633	40.8839	0.715468	11.23	-1.99413	0.00244141	0.0026123	1.99413	
9.25115	-1.625	39.7383	4.98169	0.0247192	0.0012207	-0.0143433	9.2343	-0.786549	40.8851	0.71549	11.2298	-1.99548	0.00235596	-0.000646973	1.99548	
10.4673	-1.09375	40.4825	4.98138	0.0247192	0.00213623	0.0195313	9.23309	-0.788856	40.8859	0.715503	11.2297	-1.99656	0.00228271	-0.00175781	1.99656	
10.337	-1.28125	40.9396	4.9942	0.0253296	0.00152588	0.00701904	9.23247	-0.791383	40.8863	0.71551	11.2296	-1.99711	0.00229492	-0.00297852	1.99711	
9.55518	-0.59375	40.6526	4.97833	0.0234985	0.00213623	0.0430298	9.23247	-0.793991	40.8866	0.715516	11.2295	-1.99706	0.00220947	-0.00153809	1.99706	
9.51174	-1.78125	40.9184	4.98077	0.0244141	0.0012207	-0.00366211	9.23277	-0.796673	40.8869	0.71552	11.2295	-1.9967	0.00217285	-0.00108643	1.9967	
8.90369	2.5625	40.9822	4.9826	0.0250244	0.00152588	-0.0228882	9.23316	-0.799015	40.8871	0.715524	11.2294	-1.99628	0.00220947	-0.000708008	1.99628	
9.9895	-0.34375	40.8227	4.98047	0.0274658	0.00305176	-0.0134277	9.23358	-0.800314	40.8874	0.715529	11.2294	-1.99581	0.00224609	-0.0020752	1.99581	
8.77339	-1.96875	40.7376	4.97772	0.0265503	0.00274658	0.0109863	9.23411	-0.801085	40.8876	0.715533	11.2294	-1.99525	0.00227051	-0.00240479	1.99525	
8.46936	-1.28125	39.4938	4.9823	0.0241089	0.00427246	0.00976563	9.23447	-0.802196	40.8875	0.715532	11.2294	-1.9949	0.00235596	-0.00217285	1.9949	
9.12085	-0.28125	41.1097	4.96979	0.0265503	0.00152588	-0.00915527	9.23449	-0.803516	40.887	0.715523	11.2295	-1.99496	0.00238037	-0.0015625	1.99496	
10.6844	-0.34375	40.9928	4.96979	0.0234985	0.00152588	0.0268555	9.23458	-0.804631	40.8864	0.715513	11.2296	-1.99497	0.00235596	0.000720215	1.99497	
0.82522	-0.15625	41.0778	4.96582	0.0238037	0.00152588	0.0241089	9.2338	-0.805382	40.886	0.715504	11.2296	-1.99583	0.00233154	0.00098877	1.99583	
9.94607	-1.3125	41.0353	4.97223	0.0231934	0.00213623	0.00610352	9.23077	-0.805912	40.8856	0.715498	11.2297	-1.99892	0.00229492	0.00144043	1.99892	
10.7279	-0.875	40.929	4.97101	0.0259399	0.000305176	0.0167847	9.227	-0.806492	40.8853	0.715493	11.2297	-2.00274	0.00216064	0.00358887	2.00274	
9.64204	-0.78125	40.7695	4.97162	0.0231934	0.00213623	-0.0088501	9.224	-0.807146	40.8851	0.715489	11.2298	-2.00578	0.0020874	0.00288086	2.00578	
9.72891	-0.65625	40.9609	4.9765	0.0228882	0.00152588	-0.0204468	9.22155	-0.807757	40.8848	0.715485	11.2298	-2.00828	0.00209961	0.00314941	2.00828	
11.0319	0.09375	40.8758	4.97345	0.0253296	0.00305176	-0.0170898	9.21968	-0.808156	40.8846	0.715481	11.2299	-2.01019	0.00216064	0.00241699	2.01019	
9.81577	0.625	41.0353	4.96979	0.0244141	0.00488281	-0.0283813	9.21862	-0.808015	40.8844	0.715477	11.2299	-2.01128	0.00230713	0.00189209	2.01128	
11.249	0.59375	41.0885	4.96735	0.0241089	0.00396729	0.0012207	9.21837	-0.807077	40.8843	0.715475	11.2299	-2.01155	0.00236816	-0.000158691	2.01155	
9.20771	-0.96875	40.6738	4.97833	0.0253296	0.00213623	-0.0518799	9.21885	-0.80554	40.8842	0.715474	11.2299	-2.01108	0.00230713	-0.00368652	2.01108	
8.64309	0.46875	40.6313	4.97437	0.0265503	0.000305176	-0.000305176	9.21954	-0.803692	40.8841	0.715472	11.2299	-2.01041	0.00220947	-0.00498047	2.01041	
9.55518	-0.5625	40.7802	4.97711	0.0262451	0.0012207	-0.0192261	9.22008	-0.801502	40.8839	0.715468	11.23	-2.00991	0.00217285	-0.00411377	2.00991	
9.51174	-0.96875	40.7376	4.97589	0.0228882	0.00213623	0.0100708	9.22065	-0.799144	40.8835	0.715462	11.23	-2.00939	0.00209961	-0.00289307	2.00939	
9.20771	-0.6875	40.4081	4.97498	0.0241089	0.000305176	-0.000610352	9.22135	-0.796866	40.8831	0.715454	11.2301	-2.00878	0.00202637	-0.0024292	2.00878	
10.1632	-0.09375	40.7908	4.97467	0.0250244	0.00152588	0.00701904	9.22221	-0.794552	40.8825	0.715443	11.2302	-2.00802	0.00200195	-0.00111084	2.00802	
8.94712	-0.4375	40.7695	4.97467	0.0250244	0.00152588	-0.0448608	9.22328	-0.792028	40.8817	0.715431	11.2304	-2.00707	0.00201416	-0.00233154	2.00707	
15.8095	-0.96875	40.6738	4.96552	0.0259399	0.00457764	0.0241089	9.22541	-0.789403	40.881	0.715417	11.2305	-2.00508	0.00211182	-0.00214844	2.00508	
8.2522	-1.78125	40.5782	4.97742	0.0250244	0.00152588	0.020752	9.2293	-0.787023	40.8801	0.715402	11.2306	-2.00134	0.00211182	-0.00159912	2.00134	
8.51279	-0.875	40.5675	4.97986	0.0247192	0.00396729	0.0177002	9.23367	-0.785078	40.8791	0.715384	11.2308	-1.99714	0.00218506	-0.0026123	1.99714	
9.68547	-0.71875	40.9184	4.97284	0.0250244	0.00274658	-0.0314331	9.23758	-0.783372	40.8779	0.715364	11.231	-1.99343	0.00224609	-0.00372314	1.99343	
10.3804	0	41.0459	4.9704	0.0241089	0.00213623	-0.0012207	9.24155	-0.781598	40.8768	0.715345	11.2312	-1.98964	0.00227051	-0.00285645	1.98964	
10.0329	0.125	39.2067	4.97498	0.0271606	0.00183105	0.00366211	9.24593	-0.779494	40.8756	0.715323	11.2314	-1.98547	0.00222168	-0.00217285	1.98547	
9.29458	-0.375	40.9822	4.97284	0.0265503	0.0012207	-0.0341797	9.25059	-0.776999	40.8739	0.715293	11.2317	-1.98111	0.00216064	-0.00397949	1.98111	
8.90369	-0.90625	40.7695	4.97772	0.0216675	0.00183105	-0.0131226	9.25516	-0.774346	40.872	0.715261	11.232	-1.97685	0.00206299	-0.00489502	1.97685	
8.2522	-0.34375	40.9077	4.97864	0.0234985	0.00335693	0.0274658	9.25932	-0.771698	40.8702	0.715229	11.2323	-1.973	0.00213623	-0.00343018	1.973	
9.59861	-2.03125	40.7376	4.9762	0.0231934	0.00366211	0.0265503	9.26301	-0.769226	40.8684	0.715198	11.2326	-1.96961	0.00222168	-0.00344238	1.96961	
9.46831	-0.4375	41.0247	4.97681	0.0222778	0.00366211	0.000305176	9.26656	-0.767114	40.8667	0.715168	11.2329	-1.96636	0.00230713	-0.00439453	1.96636	
9.72891	0.125	40.642	4.97925	0.0228882	0.00183105	-0.0497437	9.27017	-0.765032	40.8651	0.715138	11.2332	-1.96303	0.00229492	-0.00662842	1.96303	
10.5976	0	41.1948	4.97681	0.0247192	0.00457764	-0.0256348	9.27403	-0.762577	40.8634	0.71511	11.2335	-1.95945	0.00246582	-0.0083252	1.95945	
9.03398	-1.59375	40.8014	4.98383	0.0280762	0.00213623	-0.0112915	9.2782	-0.759962	40.862	0.715084	11.2337	-1.95553	0.00246582	-0.00842285	1.95553	
7.8613	-1.1875	40.4718	4.98657	0.0265503	0.00457764	0.00488281	9.28213	-0.757645	40.8605	0.715059	11.234	-1.95185	0.00258789	-0.00740967	1.95185	
9.90264	-0.90625	40.7483	4.99237	0.0256348	0.00213623	0.0247192	9.28555	-0.755696	40.8589	0.715031	11.2342	-1.9487	0.00255127	-0.0057373	1.9487	
8.81682	0.15625	40.8758	4.98627	0.022583	0.00274658	0.0112915	9.28874	-0.753787	40.8573	0.715003	11.2345	-1.94578	0.00246582	-0.00415039	1.94578	
8.81682	1.78125	40.6845	4.98413	0.0253296	0.00183105	0.0314331	9.2917	-0.751292	40.8558	0.714976	11.2348	-1.94309	0.00238037	-0.00294189	1.94309	
8.64309	-0.71875	40.9184	4.9826	0.0241089	0.00213623	-0.00457764	9.29423	-0.747953	40.8542	0.714948	11.2351	-1.94083	0.00238037	-0.0010498	1.94083	
8.64309	-1.0625	40.7483	4.98566	0.0222778	0.00366211	0.0601196	9.29629	-0.744378	40.8527	0.714922	11.2353	-1.93903	0.00251465	0.00136719	1.93903	
8.33906	-0.59375	42.1516	4.98688	0.027771	0.00274658	0.00213623	9.29783	-0.740999	40.8514	0.714899	11.2355	-1.93771	0.00257568	0.00222168	1.93771	
8.16533	-1.75	40.5144	4.99146	0.0259399	0.00335693	0.0256348	9.29875	-0.737899	40.8504	0.714883	11.2357	-1.93695	0.00262451	0.00284424	1.93695	
6.64519	-1.46875	40.6738	4.99054	0.0241089	0.00213623	-0.00579834	9.29871	-0.735312	40.8496	0.714868	11.2358	-1.93712	0.00269775	0.00263672	1.93712	
14.2025	-0.09375	41.1735	4.98077	0.0222778	0.00305176	0.015564	9.29845	-0.733101	40.8488	0.714854	11.236	-1.93754	0.00275879	0.00297852	1.93754	
10.3804	-0.0625	41.1523	4.98444	0.0265503	0.00305176	-0.0231934	9.29946	-0.730779	40.8481	0.714841	11.2361	-1.93664	0.00281982	0.00384521	1.93664	
9.72891	-0.53125	40.8865	4.98779	0.0259399	0.00244141	-0.0256348	9.30161	-0.728201	40.8476	0.714832	11.2362	-1.93458	0.00273437	0.00185547	1.93458	
9.77234	-0.78125	41.131	4.99054	0.022583	0.00152588	-0.0238037	9.30405	-0.725557	40.8472	0.714825	11.2363	-1.93221	0.00273437	7.32422E-005	1.93221	
9.29458	-0.71875	40.9928	4.99146	0.0241089	0.00396729	-0.0210571	9.30662	-0.722991	40.8469	0.714821	11.2363	-1.92968	0.00273437	-0.00147705	1.92968	
9.46831	-1.03125	40.0572	4.99207	0.0259399	0.00213623	-0.00396729	9.30919	-0.72057	40.8466	0.714816	11.2364	-1.92716	0.00270996	-0.000378418	1.92716	
9.03398	-0.5625	40.929	4.98566	0.0241089	0.00640869	0.0286865	9.31168	-0.718306	40.8461	0.714807	11.2364	-1.92476	0.00288086	0.000817871	1.92476	
8.07847	-0.375	41.0566	4.98932	0.0219727	0.00366211	-0.0189209	9.31382	-0.716067	40.8456	0.714798	11.2365	-1.9227	0.0029541	-8.54492E-005	1.9227	
10.0764	0.78125	41.2798	4.98596	0.022583	0.00213623	-0.0384521	9.31559	-0.713545	40.8452	0.714791	11.2366	-1.92101	0.00299072	-0.000256348	1.92101	
10.5541	-1.6875	41.1735	4.98535	0.0247192	0.00213623	-0.0515747	9.31753	-0.710745	40.8451	0.714789	11.2366	-1.91909	0.00300293	-0.00179443	1.91909	
8.64309	-0.84375	40.8546	4.99237	0.0256348	0.00274658	-0.00213623	9.31979	-0.708136	40.8451	0.714789	11.2366	-1.91682	0.00297852	-0.00297852	1.91682	
8.33906	-1.46875	40.4612	4.9942	0.0256348	0.00213623	-0.0100708	9.32181	-0.70593	40.8451	0.71479	11.2366	-1.9148	0.00291748	-0.00444336	1.9148	
8.77339	-1.625	41.2798	4.99237	0.0250244	0.00213623	0.00274658	9.32326	-0.704201	40.8451	0.714789	11.2366	-1.91335	0.00285645	-0.0043457	1.91335	
9.16428	-1.375	40.8758	4.9939	0.0247192	0.00274658	-0.00671387	9.32431	-0.703041	40.8452	0.71479	11.2366	-1.91229	0.00289307	-0.00262451	1.91229	
9.72891	-1.09375	41.0034	4.9942	0.0247192	0.00213623	-0.00427246	9.32526	-0.702334	40.8453	0.714793	11.2366	-1.91132	0.00279541	-0.00177002	1.91132	
13.5075	-1.46875	40.8971	4.99207	0.0241089	0.00244141	-0.0134277	9.32692	-0.701997	40.8455	0.714797	11.2365	-1.90962	0.00280762	-0.00185547	1.90962	
9.16428	-1.28125	40.8121	4.99207	0.0265503	0.00396729	0.0250244	9.32985	-0.702059	40.8458	0.714801	11.2365	-1.90664	0.0027832	-0.0010498	1.90664	
8.94712	-2.09375	41.0034	4.99084	0.0280762	0.00152588	0.0271606	9.33322	-0.702634	40.846	0.714805	11.2365	-1.90323	0.00275879	-0.000952148	1.90323	
8.86025	-1.5625	40.6207	4.99542	0.0198364	0.00213623	0.0241089	9.33626	-0.703844	40.8463	0.71481	11.2364	-1.90015	0.00273437	-0.000439453	1.90015	
8.07847	-1.71875	40.5782	4.99481	0.0250244	0.00274658	0.00946045	9.33878	-0.705651	40.8464	0.714813	11.2364	-1.8976	0.002771	-0.00131836	1.8976	
10.4238	-0.625	41.8646	4.98932	0.0238037	0.00518799	0.0012207	9.34092	-0.70783	40.8466	0.714816	11.2364	-1.89543	0.00289307	-0.00108643	1.89543	
10.2501	-0.625	41.333	4.98627	0.0244141	-0.000305176	0.0109863	9.34327	-0.710051	40.8472	0.714825	11.2363	-1.89299	0.00273437	-0.00305176	1.89299	
8.3825	-0.625	41.1629	4.98505	0.0247192	0.00396729	0.0332642	9.34583	-0.712142	40.848	0.714841	11.2361	-1.89028	0.0027832	-0.00180664	1.89028	
10.1632	-1.34375	41.0459	4.98077	0.0244141	0.00396729	0.0405884	9.34827	-0.714217	40.8491	0.714859	11.2359	-1.88766	0.00280762	-0.0012085	1.88766	
9.72891	-0.59375	40.9609	4.98688	0.0259399	0.00152588	-0.00366211	9.35079	-0.716382	40.8502	0.714879	11.2357	-1.88494	0.0027832	-0.00112305	1.88494	
9.42488	-0.875	41.0885	4.98749	0.0250244	0.00274658	0.0393677	9.35348	-0.718556	40.8514	0.7149	11.2355	-1.88205	0.002771	-0.000170898	1.88205	
8.99055	-0.875	40.9396	4.98718	0.0222778	0.00183105	0.0222778	9.3561	-0.720707	40.8527	0.714922	11.2353	-1.87922	0.00272217	0.00164795	1.87922	
9.90264	-0.21875	40.9822	4.98383	0.0216675	0.00274658	0.00915527	9.3586	-0.722777	40.854	0.714945	11.2351	-1.87649	0.00273437	0.00303955	1.87649	
10.8582	0.40625	41.1097	4.98413	0.0241089	0.00335693	-0.00488281	9.36137	-0.724467	40.8553	0.714968	11.2349	-1.8735	0.00280762	0.00379639	1.8735	
11.249	-0.09375	41.0885	4.97955	0.0250244	0.00335693	0.0149536	9.36488	-0.725571	40.8568	0.714993	11.2346	-1.86974	0.0027832	0.00523682	1.86974	
5.29878	-1.625	40.6951	4.98932	0.0234985	0.00274658	0.0143433	9.36845	-0.726404	40.8582	0.715019	11.2344	-1.86592	0.00280762	0.00596924	1.86592	
8.59966	-0.78125	40.6632	4.98871	0.0265503	0.00152588	0.00213623	9.3708	-0.727397	40.8596	0.715043	11.2341	-1.86333	0.0026123	0.00490723	1.86333	
9.20771	-3.5625	40.6845	4.98108	0.0265503	0.00274658	-0.0357056	9.37218	-0.728951	40.8608	0.715065	11.2339	-1.86174	0.00257568	0.00423584	1.86174	
9.38145	-1.03125	40.8546	4.98108	0.0234985	0.00213623	-0.00579834	9.37334	-0.731385	40.8619	0.715084	11.2337	-1.8604	0.00257568	0.00554199	1.8604	
9.29458	-1.21875	40.9715	4.9826	0.0259399	0.00152588	-0.015564	9.37443	-0.734342	40.863	0.715102	11.2336	-1.85914	0.00255127	0.00698242	1.85914	
10.2935	-0.53125	41.7795	4.97955	0.0250244	0.00152588	0.062561	9.37559	-0.737361	40.8641	0.715122	11.2334	-1.85777	0.00250244	0.00957031	1.85777	
9.51174	-0.5625	40.6207	4.98291	0.0265503	0.00152588	0.0411987	9.37701	-0.740257	40.8655	0.715147	11.2331	-1.85611	0.00247803	0.0116211	1.85611	
10.0764	-1.125	40.7376	4.98169	0.0247192	0.00274658	-0.0115967	9.37867	-0.743025	40.8669	0.715171	11.2329	-1.85421	0.00250244	0.0110474	1.85421	
10.5107	-1.625	40.6526	4.98413	0.0256348	0.00396729	-0.0259399	9.38069	-0.745924	40.8681	0.715193	11.2327	-1.85199	0.00255127	0.0102783	1.85199	
9.07742	-1.21875	40.6526	4.9826	0.0247192	0.00274658	0.0161743	9.38305	-0.749126	40.8692	0.715211	11.2325	-1.84945	0.00257568	0.0110962	1.84945	
10.7279	-4.3125	41.0353	4.98657	0.0250244	0.00366211	0.0183105	9.38561	-0.753051	40.8702	0.715228	11.2323	-1.84672	0.00262451	0.0123657	1.84672	
10.337	0.46875	41.0141	4.96857	0.0234985	0.00274658	0.00457764	9.3886	-0.757826	40.8711	0.715245	11.2322	-1.84357	0.00257568	0.0115479	1.84357	
10.6844	-0.28125	40.5144	4.97192	0.0265503	0.00244141	-0.0158691	9.39219	-0.762531	40.8721	0.715261	11.232	-1.83982	0.0026123	0.00982666	1.83982	
10.0329	-0.5625	41.535	4.97223	0.0280762	0.00274658	-0.0296021	9.3963	-0.7667	40.873	0.715277	11.2318	-1.83555	0.00263672	0.00767822	1.83555	
8.86025	-0.65625	40.8865	4.97284	0.0247192	-0.00152588	-0.00701904	9.40058	-0.770568	40.874	0.715296	11.2317	-1.83109	0.00246582	0.00701904	1.83109	
9.55518	0.21875	40.8333	4.97528	0.0247192	0.00183105	-0.00396729	9.40467	-0.77408	40.8752	0.715315	11.2315	-1.82681	0.00233154	0.00681152	1.82681	
9.25115	-1.28125	40.8227	4.97772	0.0274658	0.00152588	0.0201416	9.40855	-0.777221	40.8762	0.715334	11.2313	-1.82275	0.00240479	0.00717773	1.82275	
10.337	0.09375	40.8758	4.97131	0.0234985	0.00213623	0.0271606	9.41241	-0.780119	40.8772	0.715351	11.2311	-1.81872	0.00233154	0.00693359	1.81872	
10.5541	0.3125	41.0672	4.97223	0.022583	0.00396729	-0.0100708	9.41658	-0.782554	40.8782	0.715368	11.231	-1.81438	0.00233154	0.00490723	1.81438	
10.2501	-0.1875	41.418	4.96552	0.022583	0.00305176	0.015564	9.42123	-0.784335	40.8792	0.715387	11.2308	-1.80955	0.00239258	0.00567627	1.80955	
9.46831	-0.78125	39.7489	4.97711	0.0262451	0.00274658	-0.0189209	9.42615	-0.785698	40.8803	0.715406	11.2306	-1.80444	0.00239258	0.00334473	1.80444	
8.68652	-1.59375	40.5356	4.9765	0.0244141	0.00213623	0.0125122	9.43093	-0.787045	40.881	0.715418	11.2305	-1.79954	0.00240479	0.0029541	1.79954	
10.1632	-0.6875	40.7057	4.97711	0.0210571	-0.000305176	-0.0222778	9.43544	-0.788578	40.8814	0.715424	11.2304	-1.79498	0.00228271	0.00169678	1.79498	
6.42803	-0.71875	40.4293	4.97589	0.0234985	0.00213623	0.0198364	9.43942	-0.790141	40.8816	0.715428	11.2304	-1.79096	0.00223389	0.00268555	1.79096	
9.64204	-0.875	40.7908	4.97223	0.0250244	0.00213623	0.0213623	9.44248	-0.791624	40.8816	0.715428	11.2304	-1.7879	0.00218506	0.00294189	1.7879	
9.29458	3.375	40.7695	4.97498	0.0247192	0.00152588	-0.0119019	9.445	-0.792424	40.8815	0.715425	11.2304	-1.7854	0.00213623	0.00189209	1.7854	
9.12085	-0.34375	40.8333	4.97711	0.0262451	0.00274658	0.00854492	9.44737	-0.791845	40.8813	0.715422	11.2304	-1.78306	0.00218506	0.00214844	1.78306	
8.51279	-0.21875	40.9609	4.97406	0.0250244	0.00213623	-0.00640869	9.44938	-0.790413	40.8811	0.715419	11.2305	-1.78108	0.00216064	0.00332031	1.78108	
8.99055	-1.21875	41.1416	4.97955	0.0259399	0.00366211	-0.027771	9.45092	-0.78885	40.881	0.715417	11.2305	-1.77957	0.00222168	0.00244141	1.77957	
8.42593	-0.78125	40.5994	4.97803	0.0259399	0.00152588	-0.00183105	9.45195	-0.787386	40.8809	0.715416	11.2305	-1.77855	0.00222168	0.00299072	1.77855	
9.90264	0	40.9396	4.97192	0.022583	0.00457764	0.0421143	9.45262	-0.785916	40.8808	0.715414	11.2305	-1.77789	0.00234375	0.00217285	1.77789	
4.82102	0.5	41.1097	4.96368	0.0210571	0.00274658	0.00366211	9.45253	-0.784052	40.8807	0.715412	11.2305	-1.778	0.00239258	0.000671387	1.778	
9.94607	-0.34375	40.929	4.97467	0.0259399	0.00152588	0.0161743	9.45116	-0.781666	40.8807	0.715412	11.2305	-1.77937	0.00234375	0.00178223	1.77937	
9.29458	-5.875	40.9396	4.97742	0.0238037	0.00305176	-0.00579834	9.44924	-0.779818	40.8808	0.715413	11.2305	-1.78128	0.00230713	0.00258789	1.78128	
9.46831	-1.28125	40.7695	4.97437	0.0253296	0.00274658	0.0250244	9.44743	-0.779627	40.8808	0.715415	11.2305	-1.78308	0.00230713	0.00294189	1.78308	
9.16428	-0.375	40.6632	4.97894	0.0256348	0.00213623	-0.0311279	9.44561	-0.780325	40.8808	0.715415	11.2305	-1.7849	0.00224609	0.000964355	1.7849	
10.2501	0.0625	40.8971	4.97925	0.0265503	0.00152588	0	9.4439	-0.78082	40.8808	0.715413	11.2305	-1.78662	0.00219727	0.00078125	1.78662	
8.81682	-0.53125	40.8546	4.97894	0.0241089	0.00152588	-0.000915527	9.44236	-0.780934	40.8807	0.715411	11.2305	-1.78818	0.00216064	0.00137939	1.78818	
11.2056	0.46875	41.2692	4.97681	0.0222778	0.00366211	-0.027771	9.44108	-0.780642	40.8806	0.715411	11.2305	-1.78947	0.00219727	0.00145264	1.78947	
10.2935	-0.0625	41.1735	4.9823	0.0271606	0.00213623	-0.017395	9.44042	-0.779823	40.8807	0.715413	11.2305	-1.79011	0.00234375	0.0010376	1.79011	
8.42593	-0.21875	40.5144	4.98077	0.0265503	0.00274658	-0.0244141	9.44017	-0.778529	40.8809	0.715416	11.2305	-1.79032	0.00238037	0.000219727	1.79032	
8.2522	-1.34375	40.6526	4.98047	0.0268555	0.00274658	0.0140381	9.43956	-0.777082	40.881	0.715418	11.2305	-1.79091	0.0024292	-2.44141E-005	1.79091	
8.33906	-0.90625	40.7695	4.98718	0.0244141	0.00274658	-0.0473022	9.43828	-0.775796	40.881	0.715417	11.2305	-1.79221	0.00245361	-0.00300293	1.79221	
8.90369	-0.84375	39.8021	4.98749	0.0259399	0.00152588	0.0186157	9.43643	-0.774694	40.8807	0.715412	11.2305	-1.7941	0.00235596	-0.00185547	1.7941	
8.77339	-0.53125	40.8546	4.98322	0.0241089	0.00366211	0.0411987	9.43421	-0.773634	40.88	0.715401	11.2306	-1.79643	0.00238037	-0.000830078	1.79643	
9.59861	-0.875	40.7908	4.98657	0.0259399	-0.000305176	-0.00305176	9.43181	-0.772563	40.8792	0.715387	11.2308	-1.79898	0.0022583	-0.000195313	1.79898	
8.94712	-1	40.7908	4.98352	0.0283813	0.00152588	-0.00854492	9.42936	-0.771559	40.8784	0.715372	11.2309	-1.80156	0.00223389	-0.0010376	1.80156	
8.68652	-2.15625	40.7376	4.98688	0.0265503	0.00274658	-0.00152588	9.42676	-0.770891	40.8776	0.715357	11.2311	-1.80431	0.00235596	-0.00020752	1.80431	
7.77444	1.90625	40.5782	4.99207	0.0253296	0.00396729	0.0216675	9.42369	-0.770297	40.8766	0.715341	11.2312	-1.80754	0.0024292	-0.000134277	1.80754	
8.16533	-1.71875	40.4506	4.99146	0.0247192	0.00213623	0.0216675	9.41991	-0.769256	40.8756	0.715322	11.2314	-1.8115	0.0024292	-0.00012207	1.8115	
10.3804	-0.5625	41.0353	4.98627	0.0256348	0.00213623	-0.0384521	9.41576	-0.768098	40.8744	0.715301	11.2316	-1.81585	0.00245361	-0.00118408	1.81585	
10.3804	0	41.4925	4.98505	0.0271606	0.00396729	0.00762939	9.41201	-0.766945	40.8733	0.715283	11.2318	-1.81978	0.00250244	-0.0012207	1.81978	
9.55518	-0.25	40.8546	4.98718	0.0238037	0.00366211	-0.0140381	9.40887	-0.765482	40.8725	0.715268	11.2319	-1.82307	0.00256348	-0.00152588	1.82307	
9.25115	-0.59375	40.7695	4.99084	0.0238037	0.00427246	-0.00213623	9.40601	-0.763766	40.8718	0.715256	11.2321	-1.82605	0.00258789	-0.000500488	1.82605	
-0.0434326	-1.21875	40.9077	4.98322	0.0244141	0.000305176	-0.00701904	9.40175	-0.762047	40.8711	0.715243	11.2322	-1.83043	0.00253906	-0.000708008	1.83043	
9.81577	-0.84375	40.9077	4.99268	0.0259399	0.00274658	0.00854492	9.39476	-0.760516	40.8704	0.715231	11.2323	-1.83754	0.00246582	-0.00205078	1.83754	
9.33801	-0.53125	40.8758	4.98749	0.022583	0.00274658	-0.0119019	9.38667	-0.759101	40.8697	0.71522	11.2324	-1.84574	0.00246582	-0.00267334	1.84574	
9.90264	-0.90625	40.727	4.99054	0.0216675	0.00427246	0.020752	9.37899	-0.7577	40.8691	0.715209	11.2325	-1.85353	0.00257568	-0.00249023	1.85353	
9.9895	0.03125	41.2054	4.98901	0.0250244	0.0012207	0.0088501	9.37183	-0.756237	40.8685	0.715198	11.2326	-1.86079	0.00250244	-0.0019043	1.86079	
10.641	-0.1875	41.2267	4.98566	0.0247192	0.00152588	0.0134277	9.36539	-0.754515	40.868	0.71519	11.2327	-1.86731	0.00245361	-0.00236816	1.86731	
7.38354	-1.28125	40.7695	4.99634	0.0253296	0.00823975	0.0158691	9.35936	-0.752637	40.8677	0.715185	11.2327	-1.87339	0.00269775	-0.000488281	1.87339	
8.33906	-1.28125	40.642	4.9942	0.0296021	0.00213623	0.00854492	9.35297	-0.750984	40.8674	0.71518	11.2328	-1.87983	0.00272217	-0.000146484	1.87983	
9.46831	-0.03125	40.8971	4.99664	0.0256348	0.00274658	-0.027771	9.3462	-0.749523	40.8671	0.715174	11.2329	-1.88666	0.002771	-0.0012207	1.88666	
8.72996	0.375	40.8014	4.99542	0.0234985	0.00305176	0.0241089	9.33945	-0.747798	40.8667	0.715167	11.2329	-1.89347	0.00274658	0.000854492	1.89347	
9.07742	-0.8125	40.9822	4.98932	0.0231934	0.00213623	0.00549316	9.33273	-0.745684	40.8663	0.715161	11.233	-1.90025	0.00274658	0.00177002	1.90025	
9.55518	-1.15625	40.8971	4.99542	0.0259399	0.00427246	0.0259399	9.32611	-0.743555	40.866	0.715155	11.233	-1.90693	0.00280762	0.00378418	1.90693	
9.12085	-1.28125	40.4293	4.99054	0.0262451	0.00152588	0.00335693	9.31971	-0.741722	40.8657	0.715149	11.2331	-1.91338	0.00275879	0.00335693	1.91338	
9.38145	-0.75	40.8971	4.99237	0.0256348	0.00366211	0.0161743	9.31353	-0.740186	40.8652	0.715141	11.2332	-1.91965	0.00279541	0.005896	1.91965	
8.03503	-1.65625	40.6845	4.99451	0.0259399	0.000305176	-0.0198364	9.30735	-0.738933	40.8647	0.715132	11.2333	-1.92592	0.00274658	0.00435791	1.92592	
15.2014	-1.09375	40.6632	4.99298	0.0271606	0.00427246	0.0302124	9.30192	-0.738065	40.8641	0.715121	11.2334	-1.93145	0.002771	0.00391846	1.93145	
10.5107	-1.34375	40.9609	4.98688	0.0253296	0.00213623	0.0265503	9.2985	-0.737574	40.8634	0.71511	11.2335	-1.93498	0.00286865	0.00510254	1.93498	
10.2501	-0.09375	41.1735	4.98199	0.0210571	0.00396729	0.0436401	9.29665	-0.737243	40.8628	0.7151	11.2336	-1.93694	0.00296631	0.00718994	1.93694	
10.337	-0.21875	41.1097	4.98657	0.0241089	0.00366211	0.00915527	9.2955	-0.736739	40.8624	0.715093	11.2337	-1.93815	0.00300293	0.00761719	1.93815	
9.81577	-0.71875	40.9077	4.98566	0.0262451	0.00213623	-0.0280762	9.29494	-0.735988	40.8622	0.715088	11.2337	-1.93876	0.00292969	0.00562744	1.93876	
9.64204	-0.59375	39.7064	4.98444	0.0259399	0.00335693	0.0131226	9.29478	-0.735156	40.8618	0.715081	11.2338	-1.93898	0.00297852	0.00528564	1.93898	
10.0764	-0.34375	41.0672	4.98962	0.0231934	0.00518799	0.017395	9.29494	-0.734246	40.8611	0.715069	11.2339	-1.93894	0.00310059	0.00751953	1.93894	
9.59861	-0.625	40.8865	4.98749	0.0231934	0.00213623	-0.00213623	9.29543	-0.733208	40.8603	0.715056	11.234	-1.93858	0.00302734	0.00712891	1.93858	
8.59966	-0.28125	41.2161	4.97681	0.0234985	0.0012207	-0.0131226	9.29601	-0.732042	40.8597	0.715044	11.2341	-1.93811	0.00292969	0.00716553	1.93811	
9.9895	-1.71875	41.1097	4.98322	0.0247192	0.00396729	-0.0338745	9.29651	-0.730913	40.8592	0.715036	11.2342	-1.93769	0.00291748	0.005896	1.93769	
10.2501	-0.375	41.1629	4.97772	0.0247192	0.00152588	-0.0280762	9.29725	-0.730006	40.8589	0.715031	11.2343	-1.937	0.00296631	0.00505371	1.937	
9.29458	-1.34375	40.4293	4.9884	0.0234985	0.00213623	-0.0241089	9.29837	-0.729268	40.8587	0.715028	11.2343	-1.93592	0.00294189	0.00374756	1.93592	
7.8613	-1.3125	40.7057	4.98657	0.0256348	0.00366211	0.000305176	9.29937	-0.728782	40.8584	0.715022	11.2343	-1.93497	0.00297852	0.00423584	1.93497	
9.81577	-0.8125	40.6526	4.98077	0.0253296	0.00213623	0.0125122	9.29997	-0.728603	40.858	0.715015	11.2344	-1.93445	0.00289307	0.00390625	1.93445	
8.59966	-0.71875	40.8758	4.98138	0.0231934	0.00488281	0.0476074	9.30037	-0.728546	40.8575	0.715006	11.2345	-1.93413	0.00303955	0.00545654	1.93413	
10.641	-0.71875	40.8971	4.97955	0.0244141	0.00152588	0.010376	9.30083	-0.728498	40.857	0.714997	11.2346	-1.93375	0.00303955	0.00533447	1.93375	
8.77339	0.34375	40.7908	4.98383	0.0256348	0.00305176	0.00183105	9.30151	-0.728282	40.8565	0.714988	11.2347	-1.93316	0.00283203	0.00477295	1.93316	
9.51174	1.125	40.9609	4.98352	0.0228882	0.00396729	0.0512695	9.30223	-0.727451	40.856	0.71498	11.2348	-1.93252	0.00290527	0.00648193	1.93252	
9.20771	-1.09375	40.9184	4.9765	0.0265503	0.00305176	0.00549316	9.3029	-0.725965	40.8556	0.714973	11.2348	-1.93192	0.00291748	0.0078125	1.93192	
9.46831	-1.59375	40.5782	4.98352	0.0250244	0.00427246	0.0271606	9.30357	-0.724493	40.8552	0.714965	11.2349	-1.93132	0.00296631	0.00793457	1.93132	
8.59966	-0.375	40.7483	4.98199	0.0256348	0.00213623	0.00274658	9.30415	-0.723345	40.8547	0.714957	11.235	-1.93083	0.00296631	0.00782471	1.93083	
10.9016	-0.34375	40.9077	4.97284	0.0253296	0.00274658	-0.0271606	9.30476	-0.722205	40.8541	0.714947	11.2351	-1.93031	0.00290527	0.00570068	1.93031	
9.72891	0.46875	41.0885	4.96857	0.0231934	0.00152588	-0.0198364	9.3058	-0.720749	40.8536	0.714939	11.2352	-1.92935	0.00290527	0.00477295	1.92935	
15.6792	-0.09375	41.0672	4.96063	0.0259399	0.00152588	0.000305176	9.30817	-0.718819	40.8533	0.714932	11.2352	-1.92704	0.00281982	0.00413818	1.92704	
10.8582	-0.40625	40.7695	4.97467	0.0256348	0.00274658	-0.0411987	9.31274	-0.716529	40.853	0.714928	11.2353	-1.92251	0.00291748	0.00328369	1.92251	
9.55518	-0.59375	40.7908	4.97437	0.0228882	0.00244141	0.00335693	9.31866	-0.714108	40.8528	0.714924	11.2353	-1.91664	0.00284424	0.00220947	1.91664	
9.81577	-0.15625	40.9077	4.97467	0.0241089	0.00152588	-0.0247192	9.32476	-0.711599	40.8525	0.714919	11.2353	-1.91058	0.00281982	0.000158691	1.91058	
10.1632	-0.3125	40.7376	4.98016	0.0247192	0.00396729	0.00976563	9.33097	-0.708925	40.8523	0.714914	11.2354	-1.90442	0.00281982	-0.00119629	1.90442	
9.81577	-0.21875	39.1748	4.97284	0.0241089	0.00274658	-0.0115967	9.33736	-0.706061	40.8517	0.714905	11.2355	-1.89812	0.0027832	-0.00202637	1.89812	
10.0764	0.625	41.1629	4.96979	0.0241089	0.00396729	-0.0149536	9.34393	-0.702877	40.8507	0.714887	11.2357	-1.89172	0.00285645	-0.00150146	1.89172	
9.55518	0.53125	41.0353	4.96857	0.0259399	0.00366211	-0.0253296	9.3506	-0.699126	40.8496	0.714868	11.2358	-1.88524	0.00286865	-0.00303955	1.88524	
8.16533	-0.375	40.6207	4.97589	0.0259399	0.00213623	0.0308228	9.35703	-0.694868	40.8486	0.71485	11.236	-1.87899	0.00274658	-0.00250244	1.87899	
8.64309	-3.21875	40.6632	4.9762	0.0234985	0.00152588	-0.0213623	9.36278	-0.690861	40.8476	0.714832	11.2362	-1.87341	0.00272217	-0.00327148	1.87341	
9.33801	-0.71875	40.6632	4.97314	0.0231934	0.00274658	0.0161743	9.36792	-0.687734	40.8464	0.714813	11.2364	-1.86846	0.0027832	-0.00209961	1.86846	
9.46831	-0.5625	40.5569	4.97711	0.0241089	0.00305176	0.022583	9.37278	-0.685099	40.8452	0.714791	11.2366	-1.86381	0.00274658	0.000158691	1.86381	
9.25115	-0.53125	40.8227	4.97406	0.0265503	0.00274658	-0.0143433	9.37747	-0.682499	40.8439	0.714769	11.2368	-1.85934	0.00279541	0.000708008	1.85934	
9.81577	-0.40625	40.6526	4.97345	0.0231934	0.00213623	0.0244141	9.38204	-0.679882	40.8426	0.714745	11.237	-1.855	0.00279541	0.00264893	1.855	
10.7279	-0.6875	40.6207	4.97589	0.0244141	0.00457764	0.0402832	9.38677	-0.677249	40.8412	0.714721	11.2373	-1.8505	0.00283203	0.00424805	1.8505	
9.68547	-0.03125	40.5782	4.97345	0.0265503	0.00366211	0.0210571	9.39187	-0.674569	40.8398	0.714696	11.2375	-1.84566	0.00289307	0.00458984	1.84566	
7.73101	-0.96875	40.525	4.9762	0.0247192	0.00213623	-0.0317383	9.39683	-0.671831	40.8382	0.714668	11.2378	-1.84097	0.0027832	0.00141602	1.84097	
8.94712	-2.53125	40.7483	4.9765	0.0253296	0.00366211	-0.0714111	9.40107	-0.66947	40.8365	0.714639	11.2381	-1.83701	0.00286865	-0.00185547	1.83701	
9.9895	-0.0625	41.0459	4.96918	0.0210571	0.00274658	0.0137329	9.40486	-0.667721	40.8348	0.71461	11.2384	-1.8335	0.00285645	-0.00137939	1.8335	
10.1632	0.46875	40.929	4.97192	0.0259399	0.000915527	-0.0134277	9.40874	-0.665958	40.8333	0.714583	11.2386	-1.82988	0.00273437	-0.00396729	1.82988	
9.77234	-0.40625	42.1516	4.97192	0.0241089	0.00183105	-0.045166	9.41287	-0.663771	40.8321	0.714561	11.2388	-1.82596	0.00268555	-0.00599365	1.82596	
9.77234	-0.34375	41.0885	4.97772	0.0241089	0.00396729	-0.00549316	9.41714	-0.661354	40.8314	0.714549	11.239	-1.82182	0.00267334	-0.0072998	1.82182	
7.90474	-0.4375	40.7483	4.97314	0.027771	0.00183105	0.0204468	9.42119	-0.65885	40.831	0.714542	11.239	-1.81784	0.00266113	-0.0065918	1.81784	
9.51174	-1.15625	40.9396	4.97437	0.0250244	0.0012207	0.050354	9.42469	-0.656392	40.8306	0.714535	11.2391	-1.81439	0.0026001	-0.00349121	1.81439	
9.51174	-0.78125	40.7483	4.98169	0.0234985	0.00366211	-0.00762939	9.42788	-0.654161	40.8302	0.714529	11.2391	-1.81126	0.00268555	-0.00300293	1.81126	
8.77339	-0.28125	40.7376	4.97681	0.0231934	0.00335693	0.0115967	9.43089	-0.652067	40.8299	0.714523	11.2392	-1.80831	0.00275879	-0.00255127	1.80831	
10.0329	0.3125	41.0034	4.97284	0.0231934	0.00213623	-0.00335693	9.43371	-0.649802	40.8295	0.714517	11.2393	-1.80556	0.00273437	-0.0010376	1.80556	
10.5107	-0.09375	41.1948	4.97925	0.0268555	0.00213623	-0.0604248	9.43667	-0.647173	40.8293	0.714512	11.2393	-1.80264	0.00272217	-0.00358887	1.80264	
7.81787	-0.96875	40.6951	4.98352	0.0253296	0.00274658	0.0161743	9.4397	-0.644366	40.8292	0.71451	11.2393	-1.79963	0.002771	-0.00195313	1.79963	
8.51279	-1.6875	40.6632	4.98566	0.0253296	0.0012207	-0.00152588	9.44215	-0.641834	40.829	0.714508	11.2394	-1.7972	0.00266113	-0.00240479	1.7972	
6.60176	-1.15625	40.727	4.98352	0.0259399	0.00213623	-0.0180054	9.44353	-0.639845	40.8288	0.714504	11.2394	-1.79586	0.00263672	-0.00266113	1.79586	
8.77339	-0.28125	40.7589	4.9823	0.0244141	0.00274658	-0.0177002	9.44374	-0.638193	40.8285	0.7145	11.2394	-1.7957	0.00258789	-0.002771	1.7957	
8.86025	-2.0625	40.8227	4.98505	0.0253296	0.00213623	-0.0521851	9.44319	-0.636789	40.8282	0.714494	11.2395	-1.79629	0.00252686	-0.00384521	1.79629	
8.77339	-0.875	40.8546	4.98444	0.0231934	0.00335693	0.0344849	9.44228	-0.635859	40.8279	0.714489	11.2395	-1.79726	0.00257568	-0.00369873	1.79726	
9.46831	-0.9375	40.8227	4.98138	0.0256348	0.00366211	0.0195313	9.4411	-0.635303	40.8277	0.714484	11.2396	-1.79848	0.00266113	-0.00206299	1.79848	
8.86025	-1.28125	41.1735	4.98779	0.0259399	0.00274658	0.00152588	9.43978	-0.634998	40.8275	0.71448	11.2396	-1.79984	0.00266113	-0.00264893	1.79984	
7.38354	-1.75	40.5782	4.99176	0.0250244	0.0012207	0.0234985	9.43801	-0.635123	40.8273	0.714478	11.2396	-1.80163	0.00258789	-0.0026123	1.80163	
9.33801	-1	40.7483	4.98596	0.0247192	0.00518799	0.0265503	9.43557	-0.635748	40.8271	0.714475	11.2397	-1.80411	0.00268555	-0.000976563	1.80411	
13.3772	-0.625	40.8652	4.98291	0.0259399	0	-0.0378418	9.43347	-0.636635	40.8269	0.714471	11.2397	-1.80625	0.0026001	-0.0034668	1.80625	
10.945	-0.125	41.1097	4.98474	0.022583	0.00305176	-0.000305176	9.43288	-0.637464	40.8267	0.714468	11.2397	-1.80686	0.00253906	-0.00509033	1.80686	
9.59861	-6.1875	41.0566	4.98657	0.0234985	0.00366211	-0.0131226	9.43343	-0.638964	40.8267	0.714467	11.2397	-1.80632	0.00253906	-0.00645752	1.80632	
9.29458	-0.65625	40.9928	4.98657	0.0247192	0.00274658	0.0247192	9.43421	-0.642057	40.8268	0.714469	11.2397	-1.80552	0.00256348	-0.00419922	1.80552	
8.68652	-0.9375	41.131	4.98901	0.0241089	0.00335693	0.017395	9.43484	-0.645952	40.8271	0.714473	11.2397	-1.80485	0.00255127	-0.000646973	1.80485	
8.77339	-0.34375	41.0885	4.99054	0.0219727	0.00335693	-0.0253296	9.43509	-0.649756	40.8274	0.71448	11.2396	-1.80453	0.00257568	-0.00220947	1.80453	
8.81682	-0.46875	40.7695	4.98657	0.0231934	0.00152588	-0.00366211	9.43491	-0.653349	40.8279	0.714489	11.2395	-1.80462	0.0026001	-0.00181885	1.80462	
8.94712	-0.78125	41.0672	4.99054	0.0244141	0.00305176	-0.00518799	9.43437	-0.656731	40.8285	0.714498	11.2394	-1.80507	0.00264893	-0.000219727	1.80507	
10.1632	-0.96875	41.2373	4.98566	0.0241089	0.00305176	-0.0192261	9.43372	-0.660053	40.8291	0.71451	11.2393	-1.80562	0.0026123	-0.000769043	1.80562	
9.8592	-0.3125	41.0353	4.98749	0.0234985	0.00183105	-0.0656128	9.4333	-0.66332	40.8299	0.714524	11.2392	-1.8059	0.0026123	-0.00421143	1.8059	
7.34011	-1.4375	40.5994	4.99512	0.0247192	0.00305176	-0.0106812	9.43282	-0.666531	40.8308	0.714539	11.239	-1.80623	0.00268555	-0.00665283	1.80623	
9.07742	-1.78125	40.5782	4.99786	0.0259399	0.0012207	-0.0106812	9.43172	-0.669987	40.8316	0.714553	11.2389	-1.8072	0.00258789	-0.0067749	1.8072	
9.07742	-1.28125	40.3017	4.99237	0.0241089	0.00213623	-0.0222778	9.43016	-0.673881	40.8321	0.714563	11.2388	-1.80866	0.00253906	-0.00812988	1.80866	
9.38145	-0.59375	40.9396	4.9939	0.0247192	0.00396729	-0.00579834	9.42849	-0.677987	40.8325	0.714569	11.2388	-1.81027	0.0026123	-0.00822754	1.81027	
9.9895	-0.78125	41.0459	4.9939	0.0256348	0.00213623	0.00976563	9.4269	-0.682033	40.8328	0.714574	11.2387	-1.81181	0.0026123	-0.00541992	1.81181	
4.95132	-0.125	40.8014	4.99481	0.0247192	0.00274658	0.0198364	9.42483	-0.685869	40.8332	0.714581	11.2386	-1.81381	0.0026123	-0.00527344	1.81381	
9.29458	-1.09375	40.7057	4.99207	0.0256348	0.00427246	0.0305176	9.42152	-0.689474	40.8336	0.714587	11.2386	-1.81706	0.00273437	-0.0039917	1.81706	
9.03398	2.78125	40.6951	4.99359	0.0244141	0.00213623	0.0244141	9.41753	-0.692454	40.8338	0.714592	11.2385	-1.821	0.00273437	-0.00229492	1.821	
8.55623	-1.9375	40.6632	4.99298	0.0265503	0.00274658	0.0344849	9.4134	-0.694506	40.834	0.714596	11.2385	-1.8251	0.00273437	-0.00020752	1.8251	
8.2522	-1.53125	41.0247	4.99542	0.0247192	0.00213623	0.0216675	9.40892	-0.696463	40.8342	0.714598	11.2385	-1.82956	0.00273437	0.00274658	1.82956	
10.641	-0.6875	42.0134	4.9884	0.0234985	0.00366211	0.0109863	9.40429	-0.698802	40.8345	0.714604	11.2384	-1.83413	0.00274658	0.00180664	1.83413	
10.5976	-0.375	41.0885	4.9826	0.0244141	0.00213623	-0.00335693	9.40021	-0.701135	40.8353	0.714618	11.2383	-1.83807	0.00268555	0.000891113	1.83807	
9.55518	-0.46875	41.0991	4.98749	0.0241089	0.0012207	-0.0192261	9.39687	-0.703247	40.8364	0.714636	11.2381	-1.84124	0.00262451	6.10352E-005	1.84124	
10.7713	-1.375	40.9184	4.98688	0.0271606	0.00152588	0.0167847	9.39408	-0.705265	40.8375	0.714656	11.2379	-1.84382	0.00263672	-0.00020752	1.84382	
9.81577	-1.09375	41.0034	4.9881	0.0234985	0.00152588	-0.00366211	9.39192	-0.707445	40.8387	0.714677	11.2377	-1.84578	0.00249023	-0.00141602	1.84578	
9.68547	-1.59375	41.0459	4.99176	0.0228882	0.00335693	-0.0601196	9.39022	-0.709909	40.8399	0.714699	11.2375	-1.84727	0.00262451	-0.00230713	1.84727	
9.42488	-0.59375	40.8546	4.98718	0.0253296	0.00213623	-0.00183105	9.38874	-0.712603	40.8412	0.714722	11.2373	-1.84852	0.00258789	-0.00236816	1.84852	
9.9895	-0.28125	40.9396	4.98749	0.0280762	0.00213623	-0.032959	9.38747	-0.715236	40.8426	0.714745	11.237	-1.84958	0.00252686	-0.00316162	1.84958	
10.5107	0.375	41.1097	4.98657	0.0244141	0.00366211	-0.0341797	9.38661	-0.717455	40.8439	0.714768	11.2368	-1.85021	0.00256348	-0.00551758	1.85021	
9.46831	-0.21875	41.1097	4.98444	0.0228882	0.00183105	-0.0320435	9.38623	-0.719111	40.8453	0.714793	11.2366	-1.85035	0.00250244	-0.00749512	1.85035	
9.29458	-1.46875	40.5994	4.9881	0.0250244	0.00396729	0.0363159	9.38605	-0.720502	40.8468	0.714818	11.2363	-1.85028	0.00252686	-0.0050293	1.85028	
8.33906	-0.8125	40.5994	4.98749	0.0247192	0.00427246	-0.00366211	9.3857	-0.722012	40.8481	0.714842	11.2361	-1.8504	0.00263672	-0.0050293	1.8504	
8.46936	-0.96875	40.929	4.98413	0.0231934	0.00152588	0.00396729	9.38488	-0.723652	40.8493	0.714863	11.2359	-1.85102	0.00257568	-0.00466309	1.85102	
8.77339	-1.21875	40.7057	4.98108	0.0271606	0.00213623	0.0271606	9.38354	-0.725401	40.8504	0.714882	11.2357	-1.85216	0.00253906	-0.00280762	1.85216	
9.46831	-0.78125	41.0991	4.98077	0.0244141	0.00396729	0.0369263	9.38194	-0.727288	40.8515	0.714901	11.2355	-1.85358	0.00262451	0.00129395	1.85358	
9.90264	-0.9375	40.1316	4.98169	0.0219727	0.00213623	0.0134277	9.38041	-0.729236	40.8524	0.714918	11.2354	-1.85495	0.00258789	0.0022583	1.85495	
9.94607	-0.9375	40.9184	4.98688	0.0247192	0.00427246	-0.0106812	9.37919	-0.73122	40.8532	0.714931	11.2352	-1.85604	0.00270996	0.0022583	1.85604	
10.1632	-0.78125	40.9184	4.98047	0.0280762	-0.00152588	0.00549316	9.37839	-0.733238	40.8539	0.714943	11.2351	-1.85672	0.00256348	0.00336914	1.85672	
8.46936	-1.3125	40.8121	4.98627	0.0247192	0.00396729	0.0296021	9.37781	-0.735323	40.8545	0.714954	11.235	-1.85719	0.00256348	0.00478516	1.85719	
9.51174	-2	40.642	4.98657	0.0216675	0.00396729	0.0253296	9.37712	-0.737717	40.8551	0.714965	11.2349	-1.85778	0.00263672	0.00540771	1.85778	
10.2935	2.90625	41.2161	4.97223	0.0241089	0.00152588	-0.0195313	9.37649	-0.739944	40.8557	0.714975	11.2348	-1.85831	0.00258789	0.00383301	1.85831	
10.8147	-0.28125	40.9928	4.97223	0.0259399	0.00213623	0.00274658	9.37641	-0.741085	40.8564	0.714986	11.2347	-1.85828	0.00250244	0.00272217	1.85828	
10.4238	0.21875	41.2586	4.97772	0.0253296	0.00457764	0.0231934	9.37708	-0.741329	40.8571	0.715	11.2346	-1.85747	0.0026001	0.00267334	1.85747	
9.90264	-0.71875	41.5669	4.9707	0.0256348	0.0012207	-0.0350952	9.37836	-0.741192	40.8581	0.715018	11.2344	-1.85602	0.00253906	-0.000109863	1.85602	
10.2067	3.625	40.8227	4.97955	0.0231934	0.00305176	0.0109863	9.38005	-0.740226	40.8594	0.715039	11.2342	-1.85412	0.00257568	-0.000537109	1.85412	
9.42488	-0.5625	40.9609	4.9765	0.0253296	0.00305176	0.0213623	9.38203	-0.737908	40.8607	0.715063	11.2339	-1.85192	0.00255127	-0.00012207	1.85192	
3.69177	-0.875	40.8014	4.98474	0.0253296	0.000610352	0.0195313	9.38319	-0.734962	40.862	0.715085	11.2337	-1.85053	0.00249023	0.000793457	1.85053	
10.5541	-1.3125	41.1097	4.97284	0.0241089	0.00152588	-0.0259399	9.38274	-0.732224	40.8633	0.715108	11.2335	-1.85077	0.00250244	0.000524902	1.85077	
10.9016	0.65625	41.0566	4.97223	0.0241089	0.00396729	-0.00152588	9.38202	-0.729569	40.8646	0.715131	11.2333	-1.85126	0.0026001	-0.00020752	1.85126	
11.0319	0.125	41.0566	4.96704	0.0253296	0.00213623	-0.000915527	9.38223	-0.726535	40.866	0.715156	11.233	-1.85081	0.00262451	-9.76563E-005	1.85081	
8.64309	-1.03125	40.8227	4.97711	0.0247192	0.00274658	0.020752	9.38307	-0.723175	40.8675	0.715181	11.2328	-1.84972	0.0026001	0.00313721	1.84972	
8.55623	-1.125	40.6207	4.97467	0.0244141	0.00152588	0.0604248	9.38377	-0.719959	40.8689	0.715205	11.2326	-1.84878	0.00257568	0.00562744	1.84878	
8.64309	-0.65625	40.5782	4.97742	0.0265503	0.00671387	-0.0012207	9.38397	-0.717019	40.8701	0.715226	11.2323	-1.84838	0.00275879	0.00689697	1.84838	
10.1632	-0.53125	40.7376	4.97498	0.0241089	0.00274658	0.050354	9.38392	-0.714197	40.8711	0.715244	11.2322	-1.84826	0.00272217	0.0102783	1.84826	
9.33801	-0.40625	40.7589	4.97406	0.0241089	0.0012207	0.00549316	9.38399	-0.711361	40.8719	0.715259	11.232	-1.84804	0.00269775	0.0117798	1.84804	
8.94712	0.21875	40.7376	4.97223	0.0234985	0.00213623	-0.00152588	9.3841	-0.708356	40.8727	0.715272	11.2319	-1.8478	0.00262451	0.0102661	1.8478	
9.72891	-0.53125	40.7695	4.97833	0.0262451	0.00366211	0.000305176	9.38412	-0.705095	40.8734	0.715284	11.2318	-1.84767	0.0026001	0.0104248	1.84767	
8.55623	-1.09375	40.7376	4.9762	0.0271606	0.00213623	0.0112915	9.38404	-0.70181	40.8739	0.715293	11.2317	-1.84765	0.00262451	0.0107178	1.84765	
8.16533	-1.71875	39.8765	4.97864	0.0247192	0.00183105	-0.00579834	9.38358	-0.698893	40.8742	0.715299	11.2316	-1.84806	0.0026123	0.00939941	1.84806	
8.77339	-1.28125	40.5782	4.97711	0.0271606	0.00396729	-0.0280762	9.38253	-0.696546	40.8742	0.715298	11.2316	-1.84912	0.0026123	0.00679932	1.84912	
10.2935	-0.65625	40.9396	4.96735	0.0247192	-0.0012207	-0.0204468	9.38128	-0.694615	40.8739	0.715293	11.2317	-1.85042	0.00247803	0.00544434	1.85042	
15.5054	0.3125	41.0034	4.96735	0.0234985	0.00213623	-0.0234985	9.38122	-0.692674	40.8736	0.715288	11.2317	-1.85053	0.00239258	0.00493164	1.85053	
10.1632	-1.03125	40.8971	4.97284	0.0247192	0.00366211	-0.0167847	9.38331	-0.690536	40.8734	0.715284	11.2318	-1.84847	0.0026001	0.00404053	1.84847	
9.46831	2.03125	40.8227	4.97223	0.027771	0.00152588	-0.0274658	9.38655	-0.688	40.8732	0.71528	11.2318	-1.84527	0.00250244	0.00175781	1.84527	
9.90264	-0.53125	40.7483	4.97375	0.0244141	0.00274658	0.00274658	9.38989	-0.684738	40.8729	0.715276	11.2319	-1.84197	0.00245361	0.000854492	1.84197	
9.55518	-1.34375	40.9928	4.97437	0.0247192	0.00183105	0.0326538	9.39331	-0.681223	40.8727	0.715272	11.2319	-1.83858	0.00246582	0.00294189	1.83858	
9.64204	-0.59375	39.1004	4.97681	0.0222778	0.00274658	0.0112915	9.39679	-0.678	40.8722	0.715264	11.232	-1.8352	0.00249023	0.00328369	1.8352	
9.16428	-0.09375	41.0353	4.97223	0.0250244	0.00152588	-0.017395	9.4002	-0.674876	40.8712	0.715246	11.2321	-1.83195	0.00236816	0.00166016	1.83195	
11.5531	0.78125	41.0034	4.96948	0.0256348	0.00457764	-0.0234985	9.4038	-0.671442	40.8701	0.715226	11.2323	-1.82855	0.00250244	0.00212402	1.82855	
7.38354	0.46875	41.1097	4.96307	0.0234985	0.00335693	-0.00671387	9.40758	-0.66741	40.8691	0.715209	11.2325	-1.82493	0.00251465	0.00141602	1.82493	
8.59966	-2.09375	40.6207	4.97955	0.0253296	0.00213623	-0.0253296	9.41082	-0.663164	40.8682	0.715193	11.2327	-1.82186	0.00247803	-0.00045166	1.82186	
8.2522	-1.09375	40.7057	4.98322	0.027771	0.00213623	-0.00213623	9.41319	-0.659401	40.8672	0.715176	11.2328	-1.81964	0.00253906	-0.00131836	1.81964	
8.94712	-0.375	40.5782	4.97955	0.0256348	0.00427246	0.0222778	9.41492	-0.656082	40.8662	0.715158	11.233	-1.81809	0.00264893	0.000610352	1.81809	
7.03608	-0.90625	40.8758	4.98077	0.0247192	0.00274658	-0.0271606	9.4159	-0.652899	40.865	0.715138	11.2332	-1.81731	0.0026001	-0.000415039	1.81731	
9.72891	-0.3125	40.8121	4.98169	0.0241089	0.00366211	-0.000915527	9.41608	-0.64981	40.8639	0.715119	11.2334	-1.81732	0.00266113	-0.000415039	1.81732	
9.16428	-0.125	40.727	4.97955	0.0256348	0.00610352	-0.00610352	9.41594	-0.646682	40.8628	0.715099	11.2336	-1.81765	0.00279541	-0.00148926	1.81765	
9.20771	-0.84375	40.7695	4.98169	0.0253296	0.00152588	0.00274658	9.41575	-0.643481	40.8616	0.715079	11.2338	-1.81804	0.00279541	-0.00379639	1.81804	
8.77339	-0.90625	40.5994	4.98596	0.0265503	0.00213623	-0.038147	9.41536	-0.640413	40.8604	0.715058	11.234	-1.81863	0.0026123	-0.00527344	1.81863	
8.16533	1.21875	40.4293	4.98932	0.0228882	0.00396729	0.0143433	9.41456	-0.637279	40.8591	0.715034	11.2342	-1.81966	0.00266113	-0.00671387	1.81966	
8.51279	-1.4375	40.5994	4.98749	0.0265503	0.00213623	-0.0109863	9.41316	-0.633843	40.8576	0.715008	11.2345	-1.82132	0.00269775	-0.00737305	1.82132	
10.5541	-0.15625	41.1097	4.9826	0.0238037	0.00396729	0.0305176	9.41151	-0.630416	40.8561	0.714981	11.2347	-1.82323	0.002771	-0.00609131	1.82323	
9.72891	0.125	41.4712	4.9826	0.0222778	0.00152588	-0.0100708	9.41018	-0.626969	40.8547	0.714957	11.235	-1.82479	0.00268555	-0.00650635	1.82479	
10.5976	-0.375	40.9184	4.98413	0.0259399	0.00457764	-0.00579834	9.40936	-0.623297	40.8536	0.714939	11.2352	-1.82579	0.0027832	-0.00718994	1.82579	
7.60071	-0.6875	41.0034	4.98566	0.0247192	0.0012207	0.0259399	9.40871	-0.619571	40.8527	0.714923	11.2353	-1.8266	0.00275879	-0.00592041	1.8266	
16.5044	-0.21875	40.8865	4.99023	0.0228882	0.0012207	0.0308228	9.4088	-0.615895	40.8519	0.714909	11.2354	-1.82664	0.00264893	-0.00356445	1.82664	
9.33801	-0.46875	40.7908	4.98932	0.0234985	0.00274658	-0.0320435	9.4108	-0.612213	40.8512	0.714896	11.2356	-1.82477	0.00280762	-0.00402832	1.82477	
9.20771	-0.5	40.8121	4.98566	0.0234985	0.00427246	0.0170898	9.41378	-0.608536	40.8505	0.714883	11.2357	-1.82191	0.00289307	-0.00240479	1.82191	
9.03398	-0.5625	40.844	4.99054	0.0244141	0.00183105	-0.00518799	9.41652	-0.604925	40.8497	0.71487	11.2358	-1.8193	0.00281982	-0.00194092	1.8193	
10.4238	-0.125	41.1097	4.98688	0.0222778	0.00335693	-0.0134277	9.41917	-0.601337	40.849	0.714858	11.2359	-1.81677	0.00289307	-0.00137939	1.81677	
10.0764	-0.375	40.4081	4.9881	0.0265503	0.00305176	-0.0222778	9.42208	-0.597684	40.8484	0.714847	11.236	-1.81397	0.00290527	-0.00238037	1.81397	
7.64414	-1.375	40.6845	4.9939	0.0265503	0.00213623	-0.00396729	9.42497	-0.594138	40.8477	0.714834	11.2362	-1.8112	0.00291748	-0.00384521	1.8112	
9.38145	-1.46875	40.7589	4.99512	0.0256348	0.00274658	0.0186157	9.4273	-0.591059	40.8468	0.714819	11.2363	-1.80902	0.00291748	-0.00355225	1.80902	
9.59861	-0.78125	40.727	4.98932	0.0265503	0.00366211	-0.0012207	9.42929	-0.588512	40.8459	0.714804	11.2365	-1.80718	0.00300293	-0.00290527	1.80718	
7.81787	-3.15625	40.8014	4.99451	0.0253296	0.0012207	-0.0595093	9.431	-0.586648	40.845	0.714788	11.2366	-1.80563	0.00286865	-0.0043457	1.80563	
8.68652	-1	41.0034	4.99664	0.0234985	0.00396729	0.0338745	9.43206	-0.585741	40.8441	0.714772	11.2368	-1.80472	0.00289307	-0.00272217	1.80472	
8.94712	-1.53125	40.6951	4.99207	0.0241089	0.00274658	0.0473022	9.43253	-0.585539	40.8433	0.714757	11.2369	-1.80439	0.00291748	0.000183105	1.80439	
9.72891	-0.40625	40.9928	4.99146	0.0234985	0.00457764	0.0140381	9.43276	-0.585675	40.8425	0.714743	11.2371	-1.8043	0.00301514	0.000830078	1.8043	
7.29668	-1.65625	40.8227	4.99542	0.0283813	0.00213623	0.00762939	9.43267	-0.586063	40.8417	0.71473	11.2372	-1.80452	0.00292969	0.000244141	1.80452	
8.86025	-1.21875	40.6951	4.99237	0.0262451	0.00274658	0.00701904	9.43187	-0.58684	40.841	0.714717	11.2373	-1.80544	0.00292969	0.00161133	1.80544	
11.8137	-1.21875	40.8546	4.99603	0.0241089	0.00274658	0.00274658	9.43097	-0.588049	40.8402	0.714704	11.2374	-1.80648	0.00289307	0.00175781	1.80648	
10.2067	0.15625	41.0566	4.98566	0.0247192	0.00152588	-0.0180054	9.43086	-0.589395	40.8395	0.714691	11.2376	-1.8067	0.00270996	0.00128174	1.8067	
10.7279	2.53125	40.9396	4.9884	0.0262451	0.00274658	0.0256348	9.43158	-0.590075	40.8389	0.71468	11.2377	-1.8061	0.00275879	0.00219727	1.8061	
11.3793	-0.28125	41.1629	4.98688	0.0256348	0.00274658	0.00640869	9.43309	-0.5896	40.8384	0.714672	11.2378	-1.80466	0.0027832	0.00397949	1.80466	
9.64204	-0.84375	40.7483	4.98962	0.0216675	0.00335693	-0.0314331	9.43538	-0.588601	40.8381	0.714666	11.2378	-1.80243	0.00275879	0.00214844	1.80243	
8.99055	-0.96875	42.4068	4.99176	0.0247192	0.000305176	-0.03479	9.4379	-0.587727	40.838	0.714665	11.2378	-1.79993	0.00268555	0.00119629	1.79993	
9.81577	-1.21875	40.9077	4.98901	0.0253296	0.00213623	-0.0201416	9.44027	-0.587139	40.8384	0.714672	11.2378	-1.79748	0.0026123	-0.000830078	1.79748	
8.1219	-1.09375	41.0459	4.9884	0.0247192	0.00213623	-0.0152588	9.44241	-0.586906	40.8391	0.714684	11.2376	-1.79523	0.00263672	-0.0010376	1.79523	
15.3751	-1.03125	40.9184	4.98657	0.0253296	0.00244141	0.0100708	9.44504	-0.587005	40.8399	0.714697	11.2375	-1.79247	0.00255127	-0.000402832	1.79247	
10.2501	0.3125	41.3011	4.98749	0.0231934	0.00213623	-0.0515747	9.44934	-0.587178	40.8407	0.714713	11.2374	-1.78802	0.00258789	-0.00350342	1.78802	
10.2067	-0.40625	41.0778	4.98047	0.0253296	0.00183105	-0.0289917	9.45477	-0.587106	40.8417	0.71473	11.2372	-1.78241	0.0026123	-0.005896	1.78241	
8.64309	-1.46875	40.8333	4.99054	0.0247192	0.00213623	-0.00793457	9.46024	-0.586978	40.8429	0.71475	11.237	-1.77675	0.00258789	-0.00493164	1.77675	
8.59966	-2.28125	40.5675	4.98901	0.0241089	0.00213623	0.0222778	9.46526	-0.587363	40.8439	0.714769	11.2368	-1.77155	0.00250244	-0.00472412	1.77155	
8.64309	-1.125	40.7483	4.98962	0.0247192	0.00518799	0.0695801	9.46957	-0.58848	40.8449	0.714786	11.2366	-1.76708	0.00263672	-0.0017334	1.76708	
9.81577	-1.15625	40.7589	4.98688	0.0256348	0.00518799	0.0689697	9.47339	-0.590075	40.8457	0.7148	11.2365	-1.76311	0.00270996	0.0015625	1.76311	
7.47041	-0.90625	40.9077	4.98444	0.0234985	0.00244141	0.00274658	9.47675	-0.591922	40.8465	0.714813	11.2364	-1.75963	0.00268555	0.00256348	1.75963	
9.46831	0.53125	41.0566	4.98444	0.0241089	0.00152588	0.0167847	9.47942	-0.593716	40.8472	0.714827	11.2362	-1.75682	0.00266113	0.00339355	1.75682	
9.29458	-3.28125	40.8546	4.98474	0.0253296	0	-0.0396729	9.48165	-0.595563	40.8481	0.714841	11.2361	-1.75445	0.00255127	0.00106201	1.75445	
8.94712	-1.125	40.9609	4.98383	0.0231934	0.00396729	-0.0387573	9.48366	-0.598087	40.8489	0.714856	11.236	-1.7523	0.00256348	-0.000439453	1.7523	
8.64309	-1.3125	40.6526	4.98566	0.0222778	0.00396729	-0.000305176	9.48528	-0.601213	40.8497	0.71487	11.2358	-1.75054	0.00267334	0.00192871	1.75054	
8.64309	-1.0625	41.0459	4.9823	0.0238037	0.00244141	0.0418091	9.48636	-0.604603	40.8505	0.714884	11.2357	-1.74933	0.0026123	0.00224609	1.74933	
10.7713	-0.78125	41.3543	4.97833	0.0247192	0.00152588	-0.0134277	9.48721	-0.608155	40.8514	0.714899	11.2355	-1.74833	0.00256348	-0.000183105	1.74833	
11.9005	-0.625	41.1523	4.97223	0.0259399	0.00152588	0.0183105	9.48868	-0.611709	40.8524	0.714917	11.2354	-1.74668	0.00244141	-1.2207E-005	1.74668	
13.5075	-0.28125	41.0778	4.97833	0.0234985	0.00213623	-0.000305176	9.49166	-0.615118	40.8536	0.714939	11.2352	-1.74349	0.00244141	-0.00032959	1.74349	
10.5107	-0.53125	40.8758	4.97559	0.0231934	0.00366211	-0.00823975	9.49632	-0.618293	40.855	0.714962	11.2349	-1.73861	0.00247803	-0.000939941	1.73861	
9.68547	-1.875	40.9928	4.97467	0.0259399	0.00152588	0.0195313	9.50178	-0.621473	40.8563	0.714985	11.2347	-1.73292	0.0024292	-0.000268555	1.73292	
9.94607	-0.1875	40.9396	4.9762	0.0231934	0.00274658	-0.0140381	9.50733	-0.624849	40.8576	0.715008	11.2345	-1.72714	0.00247803	-0.000109863	1.72714	
9.81577	-0.25	40.5569	4.97925	0.0247192	0.00396729	-0.0204468	9.5129	-0.628107	40.8589	0.715031	11.2343	-1.72135	0.00252686	-0.00195313	1.72135	
9.8592	-0.53125	42.1622	4.97437	0.0271606	0.0012207	0.0259399	9.51849	-0.631051	40.8603	0.715055	11.234	-1.71553	0.00246582	-0.00117188	1.71553	
11.0319	0.34375	41.0034	4.97101	0.0256348	0.000305176	0.0137329	9.52428	-0.633651	40.862	0.715084	11.2337	-1.70946	0.00234375	0.000634766	1.70946	
9.38145	0.28125	41.0991	4.96613	0.0247192	0.00183105	0.0244141	9.53035	-0.635699	40.8639	0.715118	11.2334	-1.70305	0.00240479	0.00300293	1.70305	
8.81682	-2.375	40.6632	4.96674	0.0238037	0.00335693	0.0622559	9.5363	-0.637509	40.8658	0.715151	11.2331	-1.69678	0.00245361	0.00629883	1.69678	
9.38145	-0.4375	40.525	4.97955	0.0271606	0.00274658	0.00335693	9.54176	-0.639621	40.8676	0.715182	11.2328	-1.69102	0.00247803	0.00704346	1.69102	
9.33801	-1.375	40.5994	4.97528	0.0259399	0.00274658	0.0143433	9.54684	-0.64198	40.8691	0.715209	11.2325	-1.68568	0.00249023	0.00721436	1.68568	
9.20771	-1.375	40.6632	4.97314	0.0213623	0.00213623	-0.0411987	9.5516	-0.644566	40.8704	0.715232	11.2323	-1.6807	0.00249023	0.00762939	1.6807	
9.55518	-0.46875	40.6207	4.97437	0.0231934	0.00213623	-0.00762939	9.55605	-0.647375	40.8715	0.715251	11.2321	-1.67605	0.00250244	0.00848389	1.67605	
9.81577	-0.3125	40.7908	4.97498	0.0241089	0.00396729	0.0161743	9.56033	-0.650091	40.8725	0.715268	11.2319	-1.67161	0.00257568	0.00944824	1.67161	
10.337	-1.375	40.8333	4.97742	0.0274658	0.00396729	0.0134277	9.56466	-0.652691	40.8733	0.715283	11.2318	-1.66713	0.00264893	0.00909424	1.66713	
4.56042	-0.0625	40.7057	4.97406	0.0250244	0.00366211	-0.000305176	9.56835	-0.655281	40.8741	0.715296	11.2317	-1.66332	0.00258789	0.00629883	1.66332	
8.42593	-1.46875	40.5144	4.97711	0.0244141	0.00274658	0.0378418	9.57029	-0.657834	40.8747	0.715307	11.2316	-1.66127	0.00249023	0.00505371	1.66127	
8.51279	-0.625	40.5782	4.97528	0.0259399	0.00274658	-0.00610352	9.57087	-0.660452	40.8751	0.715315	11.2315	-1.66062	0.00250244	0.00469971	1.66062	
10.0329	0.15625	41.131	4.97101	0.0247192	0.0012207	-0.000915527	9.57099	-0.662966	40.8754	0.71532	11.2314	-1.66044	0.00249023	0.0039917	1.66044	
10.3804	0.375	41.1948	4.96643	0.0234985	0.00396729	-0.0250244	9.57122	-0.664972	40.8758	0.715326	11.2314	-1.66015	0.00264893	0.00457764	1.66015	
9.46831	-0.15625	41.7689	4.97192	0.0250244	0.00152588	0.0234985	9.57174	-0.666378	40.8764	0.715338	11.2313	-1.65952	0.00255127	0.00706787	1.65952	
9.77234	0.5625	40.9184	4.97498	0.0259399	0.00396729	-0.0485229	9.57237	-0.667225	40.8774	0.715354	11.2311	-1.65873	0.00255127	0.00513916	1.65873	
10.337	-0.40625	40.727	4.97437	0.0244141	0.00396729	0.00366211	9.57314	-0.667541	40.8784	0.715372	11.2309	-1.65778	0.0026123	0.00361328	1.65778	
12.6389	-1.21875	40.6632	4.97192	0.0247192	0.00213623	-0.00396729	9.57463	-0.667659	40.8793	0.715389	11.2308	-1.65613	0.00263672	0.0039917	1.65613	
9.8592	0.125	40.9609	4.97772	0.0256348	0.00396729	0.0250244	9.57718	-0.667781	40.8802	0.715403	11.2306	-1.65344	0.00273437	0.00426025	1.65344	
9.8592	-5.875	40.8652	4.97711	0.0238037	0.00213623	0.00396729	9.58025	-0.668545	40.8809	0.715417	11.2305	-1.65024	0.00273437	0.00443115	1.65024	
10.6844	0.40625	40.929	4.97437	0.0231934	0.00427246	-0.012207	9.58351	-0.670609	40.8817	0.71543	11.2304	-1.64685	0.00275879	0.00427246	1.64685	
9.72891	-0.28125	40.844	4.97681	0.0253296	0.00335693	-0.03479	9.58706	-0.673014	40.8825	0.715443	11.2302	-1.64317	0.00283203	0.00209961	1.64317	
8.1219	-1.40625	40.6632	4.98322	0.0241089	0.00274658	0.0292969	9.59048	-0.675159	40.8831	0.715455	11.2301	-1.63964	0.00283203	0.00383301	1.63964	
7.90474	-1.375	40.5994	4.98505	0.0241089	0.00213623	0.0289917	9.59308	-0.677504	40.8837	0.715464	11.23	-1.63694	0.00275879	0.00581055	1.63694	
8.33906	-0.8125	40.7057	4.98444	0.0231934	0.00152588	-0.0341797	9.59465	-0.680117	40.8841	0.715471	11.23	-1.63531	0.002771	0.00340576	1.63531	
8.68652	-1.1875	40.5888	4.99268	0.0247192	0.00152588	-0.0390625	9.59536	-0.682867	40.8843	0.715475	11.2299	-1.63456	0.00281982	0.00129395	1.63456	
9.46831	-0.6875	40.7695	4.98688	0.0250244	0.00274658	-0.00518799	9.59556	-0.685698	40.8843	0.715476	11.2299	-1.63435	0.00285645	0.000109863	1.63435	
9.8592	-0.65625	40.7483	4.9826	0.0247192	0.00213623	0.0296021	9.59561	-0.688504	40.8843	0.715475	11.2299	-1.63431	0.00280762	-0.00119629	1.63431	
8.77339	-1.125	40.6845	4.98444	0.0247192	0.00183105	0.0216675	9.59559	-0.69127	40.8842	0.715473	11.2299	-1.63435	0.002771	-0.000463867	1.63435	
9.07742	-0.71875	39.7595	4.98749	0.0231934	0.00152588	-0.0222778	9.59528	-0.694072	40.8838	0.715466	11.23	-1.63473	0.00272217	-0.00192871	1.63473	
7.25325	-2	40.5782	4.99329	0.0256348	0.00366211	0.00793457	9.59432	-0.697054	40.883	0.715452	11.2301	-1.63582	0.0027832	3.66211E-005	1.63582	
9.38145	-1.3125	40.6526	4.99176	0.0259399	0.000305176	-0.0305176	9.59257	-0.700434	40.8819	0.715434	11.2303	-1.63776	0.00270996	-0.000878906	1.63776	
6.77549	0.40625	41.1629	4.98383	0.0216675	0.00366211	-0.0134277	9.59	-0.703917	40.8808	0.715414	11.2305	-1.64051	0.00269775	-0.00206299	1.64051	
10.3804	-0.40625	40.5675	4.9826	0.0247192	0.00396729	0.00274658	9.58674	-0.706981	40.8798	0.715396	11.2307	-1.64395	0.00269775	-0.00249023	1.64395	
9.46831	3.5625	40.9609	4.98352	0.0259399	0.00213623	-0.032959	9.58339	-0.70901	40.8787	0.715377	11.2309	-1.64748	0.00263672	-0.00379639	1.64748	
9.55518	-0.59375	40.8758	4.98657	0.0265503	0.000610352	-0.0216675	9.58024	-0.709578	40.8776	0.715358	11.2311	-1.65081	0.00255127	-0.00617676	1.65081	
8.99055	-0.84375	41.3862	4.98932	0.0241089	0.0012207	-0.0177002	9.57709	-0.709449	40.8767	0.715342	11.2312	-1.65413	0.00249023	-0.00664062	1.65413	
9.77234	-0.09375	41.1735	4.99054	0.0259399	0.00213623	0.0234985	9.57388	-0.709252	40.876	0.71533	11.2313	-1.65745	0.00252686	-0.00566406	1.65745	
8.77339	-1.09375	41.0141	4.98535	0.0259399	0.00152588	-0.0195313	9.57064	-0.708951	40.8755	0.715322	11.2314	-1.66077	0.0024292	-0.00544434	1.66077	
9.9895	0.0625	41.1948	4.98749	0.0210571	0.00366211	-0.015564	9.56736	-0.708565	40.8752	0.715316	11.2315	-1.66411	0.00251465	-0.00700684	1.66411	
3.25745	0.21875	41.0247	4.97925	0.0222778	0.00366211	0.00518799	9.56322	-0.707869	40.8751	0.715313	11.2315	-1.66828	0.00250244	-0.0048584	1.66828	
9.68547	-0.84375	41.0991	4.98535	0.0265503	0.00183105	0.0140381	9.55736	-0.706812	40.875	0.715313	11.2315	-1.67415	0.00241699	-0.00444336	1.67415	
7.9916	-3.59375	40.6207	4.99451	0.0265503	0.000610352	-0.0106812	9.55051	-0.706138	40.8751	0.715314	11.2315	-1.68098	0.00235596	-0.00471191	1.68098	
7.94817	-1.59375	40.4506	4.99481	0.0247192	0.00518799	0.0152588	9.5432	-0.706543	40.875	0.715312	11.2315	-1.68831	0.00240479	-0.00510254	1.68831	
8.77339	-1.09375	40.7376	4.99634	0.0241089	0.00152588	0.038147	9.53529	-0.707717	40.8747	0.715307	11.2316	-1.69627	0.00238037	-0.00373535	1.69627	
9.25115	-0.78125	40.929	4.99298	0.0247192	0.00213623	-0.0375366	9.52713	-0.709119	40.8743	0.715301	11.2316	-1.70449	0.00229492	-0.00474854	1.70449	
8.2522	-1.09375	40.8546	4.9942	0.0247192	0.00640869	0.00823975	9.51885	-0.710613	40.874	0.715295	11.2317	-1.71283	0.00241699	-0.00302734	1.71283	
9.29458	-1.21875	40.8546	4.99237	0.0234985	0.00305176	0.0158691	9.51039	-0.712264	40.8736	0.715289	11.2317	-1.72135	0.0024292	-0.00356445	1.72135	
8.68652	-1.09375	40.9609	4.99298	0.0286865	0.00274658	-0.00762939	9.50183	-0.714133	40.8733	0.715283	11.2318	-1.72996	0.00245361	-0.0050293	1.72996	
8.59966	-0.21875	40.8758	4.9942	0.0259399	0.00305176	0.0289917	9.49315	-0.716056	40.873	0.715278	11.2318	-1.73869	0.00251465	-0.00250244	1.73869	
8.07847	-1.21875	40.5888	4.99634	0.0256348	0.00213623	-0.00335693	9.48416	-0.717894	40.8727	0.715272	11.2319	-1.74774	0.00253906	-0.00107422	1.74774	
8.2522	-1.75	41.0459	4.99634	0.0231934	0.00396729	-0.0180054	9.47471	-0.719906	40.8723	0.715266	11.232	-1.75725	0.00258789	-0.00158691	1.75725	
9.9895	-0.46875	40.1529	4.9881	0.0259399	0.00152588	-0.017395	9.46507	-0.722206	40.8719	0.715258	11.232	-1.76696	0.00256348	-0.0034668	1.76696	
10.6844	0.15625	41.0353	4.98657	0.0247192	0.00396729	0.0534058	9.45594	-0.724369	40.8713	0.715247	11.2321	-1.7762	0.00264893	-0.00219727	1.7762	
10.337	-0.65625	40.9715	4.98932	0.0210571	-0.0012207	-0.00823975	9.44772	-0.726134	40.8707	0.715236	11.2322	-1.78453	0.00253906	-0.00163574	1.78453	
10.0329	-0.21875	40.8758	4.98932	0.0259399	0.00152588	-0.0167847	9.44035	-0.7276	40.8701	0.715227	11.2323	-1.79199	0.00245361	-0.00262451	1.79199	
9.38145	-1.71875	41.0778	4.9881	0.0241089	0.00274658	-0.0210571	9.43356	-0.729	40.8696	0.715218	11.2324	-1.79887	0.00255127	-0.00224609	1.79887	
9.33801	0.15625	40.9609	4.99207	0.0259399	0.00396729	0.0167847	9.42706	-0.730441	40.8692	0.715212	11.2325	-1.80543	0.00256348	-0.0010376	1.80543	
9.55518	-0.4375	40.9609	4.98566	0.0253296	0.00152588	-0.0289917	9.42077	-0.731665	40.8689	0.715206	11.2325	-1.81177	0.00246582	-0.00230713	1.81177	
10.2935	-0.28125	41.0778	4.9881	0.0222778	0.00274658	0.0274658	9.41487	-0.732547	40.8687	0.715203	11.2326	-1.81771	0.00249023	0.000109863	1.81771	
10.3804	-0.53125	41.3436	4.98077	0.0259399	0.00274658	0.0152588	9.40961	-0.733181	40.8687	0.715202	11.2326	-1.82297	0.00257568	0.00158691	1.82297	
10.0329	0	41.0885	4.98505	0.0259399	0.00396729	-0.0012207	9.40508	-0.733546	40.8688	0.715205	11.2326	-1.82748	0.00268555	0.00224609	1.82748	
8.59966	-1.15625	40.8652	4.98627	0.0253296	0.00152588	-0.00579834	9.40093	-0.733705	40.8691	0.71521	11.2325	-1.83158	0.00266113	0.00107422	1.83158	
0.955518	-1.375	40.7908	4.97772	0.0231934	0.00335693	-0.00823975	9.39546	-0.733976	40.8695	0.715215	11.2325	-1.837	0.00273437	0.00152588	1.837	
8.77339	-2.40625	40.7908	4.9884	0.0256348	0.00274658	0.0280762	9.38734	-0.734761	40.8697	0.71522	11.2324	-1.84507	0.00269775	0.00327148	1.84507	
8.90369	-0.78125	40.7376	4.98322	0.0234985	0.00274658	0.0109863	9.37793	-0.736144	40.8699	0.715223	11.2324	-1.85445	0.00266113	0.00350342	1.85445	
9.46831	-0.9375	40.4931	4.98749	0.0228882	0.00274658	-0.0289917	9.36862	-0.737782	40.87	0.715225	11.2324	-1.86374	0.00269775	0.00178223	1.86374	
9.9895	-0.21875	40.929	4.98566	0.0265503	0.00396729	-0.00823975	9.3597	-0.739352	40.8699	0.715224	11.2324	-1.87267	0.00283203	0.00187988	1.87267	
9.68547	-0.59375	40.9396	4.98566	0.0253296	0.00213623	0.0210571	9.35134	-0.740714	40.8699	0.715222	11.2324	-1.88104	0.00270996	0.00211182	1.88104	
8.77339	-0.96875	40.7908	4.98596	0.0234985	0.00518799	0.00610352	9.3434	-0.741936	40.8698	0.715221	11.2324	-1.889	0.00285645	0.000830078	1.889	
8.94712	-1.59375	40.6632	4.98169	0.0241089	0.00396729	0.00701904	9.33554	-0.743296	40.8697	0.71522	11.2324	-1.89687	0.00292969	0.0026123	1.89687	
8.90369	-0.8125	40.7376	4.98016	0.0259399	0.00183105	-0.039978	9.32769	-0.744918	40.8695	0.715216	11.2324	-1.90476	0.00274658	0.000683594	1.90476	
10.8147	2.53125	41.0672	4.97589	0.0247192	0.00366211	0.00823975	9.32015	-0.746127	40.8693	0.715212	11.2325	-1.91234	0.002771	0.000378418	1.91234	
10.2501	-0.34375	40.9822	4.97284	0.0228882	0.00213623	0.0247192	9.31341	-0.746225	40.8691	0.715209	11.2325	-1.9191	0.00274658	0.00167236	1.9191	
10.5976	0.28125	40.929	4.97528	0.0244141	0.00274658	0.0253296	9.30764	-0.745527	40.869	0.715208	11.2325	-1.92489	0.00273437	0.00152588	1.92489	
9.81577	-0.84375	40.642	4.9762	0.0265503	0.000305176	-0.0088501	9.30269	-0.744488	40.8689	0.715206	11.2325	-1.92986	0.00266113	0.00130615	1.92986	
10.2067	-0.125	41.0353	4.97437	0.0256348	0.00213623	-0.0369263	9.29841	-0.74326	40.8688	0.715204	11.2326	-1.93415	0.00258789	0.000549316	1.93415	
9.46831	-0.3125	40.7908	4.97772	0.0231934	0.00396729	0.038147	9.29467	-0.741833	40.8687	0.715203	11.2326	-1.93791	0.00268555	0.002771	1.93791	
15.462	-0.53125	40.9396	4.98169	0.027771	0.00152588	0.00213623	9.29222	-0.740193	40.8686	0.715201	11.2326	-1.94038	0.00258789	0.000720215	1.94038	
9.68547	-0.90625	41.1097	4.97284	0.0244141	0.00213623	-0.027771	9.29185	-0.738505	40.8686	0.7152	11.2326	-1.94075	0.00272217	-6.10352E-005	1.94075	
11.3793	-0.21875	41.0885	4.97223	0.0238037	0.00366211	0.0115967	9.2929	-0.736816	40.8687	0.715202	11.2326	-1.93969	0.00280762	0.00107422	1.93969	
11.249	0.53125	41.0778	4.97101	0.0241089	-0.00152588	0.0259399	9.29492	-0.734854	40.8689	0.715206	11.2325	-1.93762	0.00263672	0.0029541	1.93762	
8.2522	-1.34375	40.5675	4.97772	0.0271606	0.00274658	-0.000305176	9.29765	-0.732583	40.8692	0.71521	11.2325	-1.93486	0.00258789	0.00227051	1.93486	
9.90264	-1.25	38.7708	4.97681	0.0259399	0.00274658	-0.0244141	9.30034	-0.730464	40.869	0.715208	11.2325	-1.93218	0.00263672	0.00245361	1.93218	
9.25115	0.03125	40.7057	4.97284	0.0241089	0.00274658	0.00701904	9.30297	-0.728558	40.8682	0.715193	11.2327	-1.92971	0.00263672	0.00163574	1.92971	
9.12085	-0.46875	40.6632	4.97345	0.0234985	0.00152588	0.00152588	9.30554	-0.726523	40.8669	0.715171	11.2329	-1.92734	0.00258789	0.00108643	1.92734	
9.42488	-0.3125	40.8758	4.97406	0.0244141	0.00274658	0.00701904	9.30799	-0.724297	40.8657	0.715149	11.2331	-1.92511	0.00253906	0.00141602	1.92511	
16.0701	-0.75	39.4619	4.97589	0.0259399	0.00305176	-0.0302124	9.3114	-0.721986	40.8642	0.715123	11.2334	-1.92195	0.0026001	0.000439453	1.92195	
9.29458	-1.125	40.7908	4.97681	0.0247192	0.00244141	0.0296021	9.3168	-0.719763	40.8623	0.715091	11.2337	-1.91687	0.00256348	0.00195313	1.91687	
9.33801	-0.5625	40.4187	4.97406	0.0244141	0.00335693	-0.00366211	9.32306	-0.717724	40.8602	0.715054	11.234	-1.91097	0.00258789	0.000683594	1.91097	
8.64309	-1.34375	40.4718	4.97681	0.0256348	0.00366211	-0.0421143	9.329	-0.715868	40.858	0.715014	11.2344	-1.90541	0.00262451	-0.00144043	1.90541	
8.68652	-1.28125	40.6845	4.97467	0.0259399	0.00152588	-0.0088501	9.33442	-0.714336	40.8556	0.714973	11.2348	-1.9004	0.00257568	-0.000634766	1.9004	
11.1622	0.5625	40.9184	4.9707	0.0228882	0.00305176	-0.00274658	9.33962	-0.712932	40.8532	0.714931	11.2352	-1.89561	0.00253906	-0.000415039	1.89561	
13.4641	0.21875	40.8546	4.96979	0.0231934	0.00366211	0.0109863	9.34575	-0.711126	40.8509	0.71489	11.2356	-1.88988	0.0026001	-0.000817871	1.88988	
10.6844	1.03125	41.0353	4.9707	0.0250244	0.00366211	-0.0088501	9.35343	-0.708626	40.8487	0.714852	11.236	-1.88257	0.00253906	-0.00141602	1.88257	
9.42488	1.40625	40.8546	4.97467	0.0250244	0.00213623	0.0344849	9.3619	-0.705202	40.8466	0.714815	11.2364	-1.87445	0.00246582	-0.000317383	1.87445	
9.90264	-0.65625	40.8758	4.97192	0.0253296	0.00213623	-0.0012207	9.37039	-0.700965	40.8446	0.714781	11.2367	-1.8663	0.00247803	0.00123291	1.8663	
9.46831	-0.59375	40.6738	4.97345	0.0228882	0.00366211	-0.020752	9.37877	-0.696518	40.8427	0.714748	11.237	-1.85824	0.00247803	7.32422E-005	1.85824	
9.29458	-1.09375	41.939	4.97711	0.0256348	0.00335693	0.000915527	9.38695	-0.692251	40.841	0.714718	11.2373	-1.85035	0.00252686	-0.000878906	1.85035	
10.1198	0.0625	40.9396	4.9704	0.0231934	0.00366211	0	9.39495	-0.688124	40.8397	0.714695	11.2375	-1.84259	0.00256348	-0.00189209	1.84259	
9.07742	0.125	40.9609	4.96948	0.0222778	0.00396729	0.0125122	9.40282	-0.683846	40.8386	0.714676	11.2377	-1.83489	0.00270996	-0.0010376	1.83489	
15.8963	-0.375	40.9184	4.97192	0.0244141	0.00213623	0.020752	9.41144	-0.679302	40.8377	0.714659	11.2379	-1.82644	0.00270996	0.00126953	1.82644	
8.07847	-1.40625	40.6526	4.97955	0.0268555	0.00152588	-0.0247192	9.42151	-0.674811	40.8368	0.714644	11.238	-1.81652	0.0026123	-0.00124512	1.81652	
8.46936	-1.28125	40.5675	4.97925	0.020752	0.00213623	0.00213623	9.43167	-0.670751	40.8358	0.714627	11.2382	-1.80653	0.00263672	-0.00124512	1.80653	
8.51279	-0.96875	40.6207	4.98108	0.0234985	0.00274658	-0.0100708	9.44082	-0.667182	40.8347	0.714608	11.2384	-1.79756	0.00266113	-0.000537109	1.79756	
8.64309	-0.90625	40.8758	4.97772	0.0234985	0.00274658	0.0216675	9.44909	-0.663964	40.8336	0.714588	11.2386	-1.78948	0.00262451	-0.000134277	1.78948	
9.20771	-0.84375	39.8127	4.98413	0.0256348	0.00213623	-0.0357056	9.45664	-0.661009	40.8323	0.714566	11.2388	-1.78215	0.002771	-0.0026001	1.78215	
9.38145	-0.875	40.7695	4.9826	0.0241089	0.00213623	-0.00244141	9.46371	-0.658285	40.8308	0.714539	11.2391	-1.77534	0.00274658	-0.00268555	1.77534	
8.51279	-0.46875	40.7164	4.98322	0.0253296	0.000305176	-0.0247192	9.47032	-0.655723	40.8291	0.714509	11.2393	-1.76902	0.00264893	-0.00269775	1.76902	
9.25115	-0.84375	40.7483	4.98291	0.0259399	0.00396729	0.0357056	9.47636	-0.653255	40.8274	0.71448	11.2396	-1.76327	0.00269775	-0.00155029	1.76327	
7.73101	-4.03125	40.3017	4.98688	0.0256348	0.00152588	-0.0515747	9.48169	-0.651428	40.8257	0.714449	11.2399	-1.75824	0.00269775	-0.00367432	1.75824	
9.55518	-0.78125	40.7695	4.9826	0.0247192	0.00335693	-0.0131226	9.48627	-0.650764	40.8238	0.714416	11.2402	-1.75398	0.00272217	-0.00447998	1.75398	
10.2935	0.28125	40.9928	4.97894	0.022583	0.00274658	-0.0280762	9.49056	-0.650543	40.8219	0.714383	11.2406	-1.75	0.00270996	-0.00439453	1.75	
10.5107	-0.03125	41.3436	4.97833	0.0241089	0.00274658	0.00946045	9.49513	-0.649965	40.8202	0.714354	11.2409	-1.74573	0.00272217	-0.0052002	1.74573	
10.2501	0.03125	41.0459	4.9823	0.0238037	0.00396729	0.0125122	9.50009	-0.648965	40.8188	0.714329	11.2411	-1.74101	0.00274658	-0.00455322	1.74101	
10.2067	-0.84375	41.1097	4.98688	0.0231934	0.00274658	0.0360107	9.50537	-0.647723	40.8176	0.714309	11.2413	-1.73593	0.00270996	-0.00142822	1.73593	
14.5065	-0.78125	40.8546	4.99115	0.027771	0.00366211	-0.0137329	9.51158	-0.646501	40.8167	0.714291	11.2415	-1.72988	0.00279541	-0.00162354	1.72988	
8.81682	-0.5	41.1735	4.9881	0.0253296	0.00152588	-0.0244141	9.51912	-0.645371	40.8158	0.714277	11.2416	-1.72249	0.00273437	-0.00249023	1.72249	
9.46831	-1.28125	40.7589	4.98688	0.0216675	0.00213623	0.0332642	9.52695	-0.644356	40.8151	0.714264	11.2417	-1.71478	0.00267334	-0.00159912	1.71478	
9.16428	-0.8125	41.131	4.98871	0.0216675	0.00335693	0.0088501	9.53432	-0.643577	40.8145	0.714254	11.2418	-1.70751	0.00266113	-0.000891113	1.70751	
10.7279	0.28125	40.9822	4.98596	0.0262451	0.00274658	-0.00427246	9.54149	-0.642833	40.8141	0.714246	11.2419	-1.70042	0.00268555	-0.00244141	1.70042	
10.2067	-0.46875	41.939	4.98444	0.0247192	0.00305176	-0.0167847	9.54882	-0.641828	40.8139	0.714243	11.2419	-1.69311	0.00272217	-0.00306396	1.69311	
7.68757	-1.96875	40.9609	4.99237	0.0250244	0.000610352	-0.00274658	9.556	-0.640866	40.8141	0.714247	11.2419	-1.68589	0.0026001	-0.00234375	1.68589	
7.60071	-1.5625	40.642	4.99054	0.0241089	0.00213623	-0.00427246	9.56214	-0.640467	40.8146	0.714255	11.2418	-1.67968	0.00255127	-0.00255127	1.67968	
8.55623	-1.375	40.4612	4.98901	0.0253296	0.00366211	-0.00244141	9.56702	-0.640688	40.8149	0.714261	11.2418	-1.67475	0.00255127	-0.00264893	1.67475	
8.81682	-0.46875	40.6845	4.99298	0.0241089	0.00152588	0.0314331	9.57098	-0.641245	40.815	0.714263	11.2417	-1.67075	0.00245361	-0.00189209	1.67075	
9.33801	-1.21875	40.8758	4.99176	0.0259399	0.00213623	-0.0222778	9.57438	-0.641933	40.8151	0.714264	11.2417	-1.66734	0.00245361	-0.00361328	1.66734	
9.12085	-0.59375	40.7908	4.99481	0.0234985	0.00396729	-0.0350952	9.57741	-0.642741	40.8152	0.714265	11.2417	-1.66431	0.00255127	-0.00402832	1.66431	
8.81682	-0.78125	40.6951	4.98962	0.0265503	0.00183105	0.0222778	9.58003	-0.643617	40.8152	0.714266	11.2417	-1.66168	0.00253906	-0.00322266	1.66168	
8.55623	-0.71875	40.5994	4.99176	0.0253296	0.00305176	0.00427246	9.58209	-0.644509	40.8152	0.714266	11.2417	-1.65963	0.00255127	-0.00264893	1.65963	
8.81682	-1.84375	40.6951	4.99573	0.0247192	0.00488281	0.0119019	9.58352	-0.6456	40.815	0.714263	11.2417	-1.65822	0.00263672	-0.00303955	1.65822	
5.16848	-1.1875	40.6951	4.99756	0.0271606	0.00213623	0.00274658	9.58382	-0.64712	40.8148	0.714259	11.2418	-1.65796	0.00263672	-0.00150146	1.65796	
10.5541	0.4375	40.9928	4.98901	0.0250244	0.00274658	0.0198364	9.58277	-0.648772	40.8146	0.714255	11.2418	-1.65905	0.00266113	-0.000610352	1.65905	
10.8147	3.0625	41.131	4.98688	0.022583	0.00366211	0.000915527	9.58157	-0.649537	40.8144	0.714252	11.2418	-1.66028	0.00279541	0.000415039	1.66028	
9.77234	-0.28125	41.0778	4.98749	0.0234985	0.00213623	0.00610352	9.58097	-0.648897	40.8144	0.714253	11.2418	-1.66087	0.00272217	-0.000769043	1.66087	
9.46831	-0.59375	40.9077	4.99054	0.0256348	0.00213623	-0.0189209	9.58063	-0.647582	40.8146	0.714256	11.2418	-1.66119	0.00274658	0.000537109	1.66119	
9.90264	-0.4375	41.9603	4.99237	0.0241089	0.00366211	-0.017395	9.58034	-0.646206	40.815	0.714263	11.2417	-1.66141	0.00275879	0.000366211	1.66141	
9.90264	-0.53125	40.9396	4.99237	0.0241089	0.00152588	0.00549316	9.58019	-0.644788	40.8158	0.714276	11.2416	-1.66142	0.00270996	0.00170898	1.66142	
10.9016	-0.28125	41.0353	4.99054	0.0234985	0.00305176	0.00152588	9.58041	-0.643296	40.8168	0.714294	11.2414	-1.66103	0.00272217	0.0013916	1.66103	
10.5976	-0.625	41.2373	4.98993	0.0244141	0.00274658	-0.0271606	9.58123	-0.641723	40.8179	0.714314	11.2412	-1.66001	0.00267334	-0.000195313	1.66001	
10.7279	-0.09375	41.2373	4.98596	0.0256348	0.0012207	-0.00457764	9.58273	-0.640058	40.8192	0.714337	11.241	-1.65829	0.0026123	-0.00181885	1.65829	
10.1632	-0.5	41.1735	4.98688	0.022583	0.00427246	0.0500488	9.58477	-0.638259	40.8208	0.714363	11.2408	-1.65599	0.00263672	0.000732422	1.65599	
8.59966	-1	40.6313	4.99298	0.0247192	0.00305176	0.017395	9.58695	-0.636451	40.8224	0.714391	11.2405	-1.65354	0.00269775	0.00240479	1.65354	
8.2522	-1.53125	40.5782	4.99146	0.0259399	0.0012207	-0.0320435	9.58863	-0.634936	40.8239	0.714418	11.2402	-1.6516	0.00266113	-0.00020752	1.6516	
9.55518	-1	40.8652	4.98718	0.0259399	0.00335693	0.0088501	9.58968	-0.633866	40.8252	0.714441	11.24	-1.65032	0.00266113	-0.00020752	1.65032	
8.64309	-1.21875	40.7057	4.99207	0.0244141	0.00152588	-0.00823975	9.59032	-0.633177	40.8265	0.714464	11.2398	-1.64946	0.0026123	-0.000366211	1.64946	
9.07742	-1.09375	40.9715	4.9826	0.0265503	0.000305176	-0.0183105	9.59056	-0.632822	40.8277	0.714485	11.2396	-1.64902	0.00250244	-0.000427246	1.64902	
9.38145	-1.90625	40.7908	4.98383	0.0247192	0.00274658	-0.0259399	9.59046	-0.632911	40.8289	0.714506	11.2394	-1.64892	0.00258789	-0.00135498	1.64892	
8.94712	-0.65625	41.0353	4.98779	0.0253296	0.00457764	0.00366211	9.59011	-0.633467	40.8301	0.714526	11.2392	-1.64906	0.00268555	-0.0010376	1.64906	
8.86025	-1.375	40.8227	4.98199	0.0253296	0.00213623	0.0390625	9.58944	-0.634323	40.8313	0.714548	11.239	-1.64953	0.00262451	0.000622559	1.64953	
8.94712	-1.90625	40.6845	4.98657	0.0265503	0.00213623	0.0354004	9.58836	-0.635579	40.8325	0.714568	11.2388	-1.65041	0.00264893	0.00078125	1.65041	
9.29458	-1.6875	39.8552	4.98566	0.0253296	0.00305176	-0.00854492	9.58696	-0.637465	40.8334	0.714584	11.2386	-1.65165	0.00268555	0.00133057	1.65165	
10.2501	0	41.1416	4.97711	0.0228882	0.00396729	0.00457764	9.58552	-0.639708	40.834	0.714595	11.2385	-1.65298	0.00268555	0.00291748	1.65298	
11.3359	0.28125	40.844	4.97467	0.0234985	-0.0012207	-0.00610352	9.58456	-0.641693	40.8345	0.714605	11.2384	-1.65385	0.00256348	0.00178223	1.65385	
9.38145	-0.125	41.0885	4.98077	0.0241089	0.00335693	0.0186157	9.58426	-0.643144	40.8352	0.714615	11.2383	-1.65405	0.00257568	0.00235596	1.65405	
10.4238	-1.15625	41.0141	4.97711	0.0268555	0.00152588	0.0219727	9.5843	-0.644319	40.8359	0.714627	11.2382	-1.65389	0.00244141	0.00275879	1.65389	
9.72891	2.78125	40.8333	4.98077	0.0234985	0.00152588	-0.000305176	9.58459	-0.645	40.8366	0.714641	11.2381	-1.65346	0.00241699	0.00263672	1.65346	
9.46831	-0.84375	41.1948	4.97833	0.0222778	0.00305176	-0.0180054	9.58503	-0.644704	40.8374	0.714655	11.2379	-1.65288	0.0024292	0.00112305	1.65288	
