4.08267	-0.78125	60.2463	4.98688	0.0241089	0.00335693	0.0112915	4.08267	-0.78125	60.2463	1.05431	7.34734	-3.26467	0.00335693	0.0112915	3.26467	
4.29983	0.03125	60.1294	4.98657	0.0247192	-0.00335693	-0.0317383	4.0827	-0.781124	60.2463	1.05431	7.34734	-3.26464	0	-0.0102234	3.26464	
7.64414	-0.15625	59.9912	4.98444	0.0256348	0.00457764	-0.00762939	4.08335	-0.780653	60.2462	1.05431	7.34736	-3.26401	0.00152588	-0.00935872	3.26401	
5.8634	0.71875	60.5228	4.97681	0.0247192	0.00213623	0.00183105	4.0854	-0.779647	60.2461	1.05431	7.3474	-3.262	0.00167847	-0.00656128	3.262	
5.12505	-0.71875	60.0869	4.97681	0.0259399	0.00396729	-0.0195313	4.08863	-0.778104	60.246	1.0543	7.34742	-3.25879	0.00213623	-0.00915527	3.25879	
3.73521	-1.65625	59.7041	4.9826	0.0268555	0.00427246	0.017395	4.0923	-0.776501	60.2458	1.0543	7.34747	-3.25517	0.00249227	-0.00473022	3.25517	
2.99685	-1.28125	59.6722	4.9826	0.0262451	0.00152588	-0.00335693	4.09572	-0.775296	60.2453	1.05429	7.34758	-3.25186	0.00235421	-0.00453404	3.25186	
4.77759	-0.625	61.4902	4.9826	0.0241089	0.00244141	0.00610352	4.09873	-0.774404	60.2448	1.05428	7.3477	-3.24897	0.00236511	-0.00320435	3.24897	
4.51699	-0.15625	60.1081	4.9826	0.0271606	0.0012207	0.00915527	4.10174	-0.773479	60.2445	1.05428	7.34775	-3.24602	0.00223796	-0.00183105	3.24602	
7.8613	-0.84375	59.9061	4.97955	0.0265503	0.00305176	-0.0305176	4.10546	-0.772383	60.2444	1.05428	7.34778	-3.24233	0.00231934	-0.00469971	3.24233	
3.95237	-0.9375	59.9061	4.97498	0.0234985	0.00396729	0.0650024	4.11025	-0.771277	60.2441	1.05427	7.34785	-3.2376	0.00246915	0.00163685	3.2376	
3.77864	-3.9375	60.2145	4.98383	0.0262451	0.00244141	0.0149536	4.11536	-0.770764	60.2436	1.05426	7.34795	-3.23259	0.00246684	0.00274658	3.23259	
3.25745	-0.78125	59.8636	4.98169	0.0280762	0.00274658	-0.0164795	4.12003	-0.771279	60.2431	1.05425	7.34808	-3.22805	0.00248836	0.00126765	3.22805	
2.34536	-1.15625	59.9061	4.9823	0.0247192	0.00427246	0.00518799	4.12394	-0.772331	60.2424	1.05424	7.34824	-3.2243	0.00261579	0.00154768	3.2243	
3.64834	-1.09375	60.3527	4.97864	0.0256348	0.00274658	0.0314331	4.12695	-0.773515	60.2415	1.05423	7.34843	-3.22148	0.00262451	0.00354004	3.22148	
4.86445	-0.03125	60.3952	4.97192	0.0244141	0.00366211	-0.0662231	4.12954	-0.774702	60.2407	1.05421	7.34861	-3.21907	0.00268936	-0.00082016	3.21907	
4.43013	0.96875	60.4271	4.96979	0.0231934	0.00213623	-0.0106812	4.13225	-0.775396	60.2401	1.0542	7.34876	-3.21651	0.00265682	-0.00140022	3.21651	
5.03818	-0.6875	60.0337	4.9646	0.0256348	0.00396729	-0.010376	4.13521	-0.775395	60.2394	1.05419	7.3489	-3.21369	0.00272963	-0.00189887	3.21369	
4.03923	-3.78125	60.1613	4.97345	0.0259399	0.00396729	-0.0143433	4.13837	-0.775563	60.2388	1.05418	7.34904	-3.21067	0.00279477	-0.00255384	3.21067	
4.77759	-0.53125	60.2251	4.97284	0.0241089	0.00396729	-0.0473022	4.14164	-0.776606	60.2382	1.05417	7.34919	-3.20756	0.00285339	-0.00479126	3.20756	
4.34326	0.09375	60.0125	4.97284	0.0250244	0.00396729	0.00823975	4.145	-0.777868	60.2375	1.05416	7.34935	-3.20435	0.00290644	-0.00417074	3.20435	
3.9958	-0.59375	58.6942	4.97955	0.0250244	0.00396729	0.0378418	4.14838	-0.778748	60.2365	1.05414	7.34957	-3.20119	0.00295466	-0.00226108	3.20119	
4.73416	1.03125	60.0975	4.97253	0.0228882	0.00549316	-0.0268555	4.15172	-0.779124	60.235	1.05411	7.34991	-3.19819	0.00306503	-0.0033304	3.19819	
3.21401	0.90625	60.3314	4.96918	0.0250244	0.00396729	0.0320435	4.15495	-0.778635	60.2333	1.05408	7.35029	-3.19534	0.00310262	-0.00185649	3.19534	
5.12505	0.375	60.2251	4.96552	0.0259399	0.00396729	0.0549316	4.15802	-0.77718	60.2317	1.05405	7.35066	-3.19264	0.00313721	0.000415039	3.19264	
3.34431	0.71875	59.6935	4.97986	0.0256348	0.00396729	0.0357056	4.161	-0.774925	60.23	1.05403	7.35103	-3.19003	0.00316162	0.0013916	3.19003	
3.21401	-1.34375	59.6829	4.97833	0.0256348	0.00366211	0.0137329	4.16363	-0.772196	60.2282	1.05399	7.35145	-3.18781	0.00344238	0.00321045	3.18781	
3.73521	-0.46875	59.7998	4.9765	0.0265503	0.00335693	0.0112915	4.16569	-0.769461	60.2261	1.05396	7.35192	-3.18623	0.00339355	0.00396729	3.18623	
3.38774	-0.25	59.7573	4.97955	0.0247192	0.00274658	-0.0341797	4.16726	-0.766736	60.2238	1.05392	7.35244	-3.18518	0.00341797	0.00252686	3.18518	
3.69177	-0.46875	59.8849	4.97711	0.0262451	0.00366211	-0.00640869	4.1684	-0.763854	60.2213	1.05387	7.35301	-3.1846	0.00340576	0.00305176	3.1846	
2.38879	-0.71875	59.9912	4.97772	0.0247192	0.00213623	0.00152588	4.16896	-0.760894	60.2187	1.05383	7.3536	-3.18464	0.00332031	0.00241699	3.18464	
12.9864	-0.28125	60.055	4.98383	0.0247192	0.00457764	-0.00213623	4.17024	-0.757905	60.216	1.05378	7.3542	-3.18396	0.00344238	0.00246582	3.18396	
3.77864	0.90625	59.7573	4.97925	0.0271606	0.00396729	-0.0265503	4.17387	-0.754607	60.2133	1.05373	7.35482	-3.18095	0.00350342	0.00115967	3.18095	
2.56252	-1.53125	59.6297	4.98383	0.0274658	0.00274658	-0.0540161	4.17837	-0.750957	60.2104	1.05368	7.35548	-3.17711	0.00356445	-0.00136719	3.17711	
3.47461	-1.03125	59.6616	4.98169	0.0241089	0.00518799	0.0436401	4.18204	-0.747463	60.2073	1.05363	7.35619	-3.17415	0.0036499	0.00159912	3.17415	
4.95132	0.71875	60.4271	4.97772	0.0244141	0.00457764	0.038147	4.18523	-0.744073	60.204	1.05357	7.35692	-3.17169	0.00367432	0.000524902	3.17169	
4.77759	0.03125	60.2676	4.97528	0.0268555	0.000305176	-0.0564575	4.18853	-0.740272	60.2009	1.05352	7.35763	-3.1691	0.00358887	-0.00233154	3.1691	
5.64624	-0.09375	60.1294	4.98444	0.0244141	-0.00518799	0.0405884	4.19224	-0.736037	60.1979	1.05346	7.3583	-3.16607	0.00327148	-4.88281E-005	3.16607	
9.64204	-0.375	60.0443	4.98688	0.0262451	0.00488281	-0.00335693	4.1972	-0.731576	60.195	1.05341	7.35896	-3.16176	0.0032959	-0.000390625	3.16176	
3.51804	1.125	59.9487	4.98383	0.0256348	0.0012207	0.0210571	4.20381	-0.726773	60.1921	1.05336	7.35962	-3.15581	0.00323486	-0.000805664	3.15581	
4.34326	-0.5625	60.0975	4.98657	0.0247192	0.00396729	0.0222778	4.21083	-0.721483	60.1892	1.05331	7.36028	-3.14945	0.00324707	0.00273437	3.14945	
4.51699	-0.28125	59.8211	4.9823	0.0256348	0.00396729	0.0354004	4.21759	-0.715974	60.1862	1.05326	7.36095	-3.14335	0.00332031	0.00457764	3.14335	
4.21296	-0.53125	61.1819	4.98444	0.0256348	0.00396729	-0.0418091	4.22423	-0.71047	60.1834	1.05321	7.36158	-3.13735	0.00332031	0.00332031	3.13735	
5.47251	0.71875	60.3633	4.98474	0.0244141	0.00335693	-0.0445557	4.23087	-0.704814	60.181	1.05317	7.36213	-3.13126	0.0032959	0.00211182	3.13126	
5.12505	0.0625	60.3633	4.98322	0.0259399	-0.000305176	-0.00335693	4.2378	-0.698768	60.1789	1.05313	7.36261	-3.12481	0.003125	0.00386963	3.12481	
-1.60701	-1.53125	59.7148	4.9939	0.0271606	0.00152588	0.0131226	4.24405	-0.692606	60.1769	1.0531	7.36306	-3.11901	0.00302734	0.00406494	3.11901	
2.56252	-2.21875	59.9487	4.9942	0.0244141	0.00274658	-0.0354004	4.24814	-0.687039	60.1748	1.05306	7.36354	-3.1154	0.00297852	0.00113525	3.1154	
2.69282	-0.78125	59.9912	4.99481	0.0253296	0.00396729	0.0283813	4.25041	-0.682288	60.1726	1.05302	7.36403	-3.11362	0.00291748	0.00334473	3.11362	
4.1261	-1.09375	60.3314	4.9942	0.0268555	0.00183105	-0.0378418	4.25184	-0.678035	60.1704	1.05298	7.36453	-3.11268	0.00283203	0.000549316	3.11268	
3.34431	-0.84375	59.8955	4.99298	0.0234985	0.00396729	0.0302124	4.2528	-0.674101	60.1683	1.05294	7.36501	-3.11221	0.00283203	-0.000439453	3.11221	
3.51804	-0.75	60.0656	4.99359	0.0247192	0.00488281	-0.00701904	4.25331	-0.670435	60.1661	1.05291	7.36549	-3.11218	0.00286865	-0.00214844	3.11218	
3.51804	-0.9375	60.1826	4.99176	0.0274658	0.00640869	0.00640869	4.25332	-0.666989	60.164	1.05287	7.36597	-3.11265	0.00297852	-0.00244141	3.11265	
0.0868652	-1.40625	59.8849	4.99451	0.0256348	0.00396729	-0.00183105	4.25234	-0.663876	60.1619	1.05283	7.36645	-3.11411	0.00300293	-0.00296631	3.11411	
2.64939	-2.5625	59.7679	5.00092	0.0253296	0.00518799	-0.0369263	4.24974	-0.661438	60.1597	1.0528	7.36694	-3.1172	0.00310059	-0.00307617	3.1172	
2.77969	2.65625	59.9168	4.9942	0.0250244	0.00213623	-0.0335693	4.24586	-0.659276	60.1574	1.05276	7.36746	-3.1216	0.00303955	-0.0041626	3.1216	
4.77759	0.125	60.3527	4.9884	0.0259399	0.00305176	-0.00946045	4.24149	-0.656335	60.1551	1.05271	7.36798	-3.12649	0.00307617	-0.00460205	3.12649	
4.73416	-0.03125	59.7892	4.9884	0.0256348	0.00396729	0.0527954	4.2373	-0.652643	60.1528	1.05267	7.3685	-3.1312	0.00305176	-0.00240479	3.1312	
4.38669	-0.71875	59.651	4.99329	0.0250244	0.00274658	0.0280762	4.23351	-0.648777	60.1505	1.05263	7.36903	-3.13553	0.00300293	-0.000219727	3.13553	
3.90894	-0.21875	60.3633	4.99542	0.0234985	0.00946045	0.012207	4.22993	-0.644905	60.148	1.05259	7.36959	-3.13966	0.00327148	0.0024292	3.13966	
4.1261	0.625	60.14	4.99054	0.0274658	0.00457764	0.0296021	4.22638	-0.64085	60.1457	1.05255	7.37012	-3.14375	0.00324707	0.00186768	3.14375	
3.56147	-1.40625	60.2145	4.99298	0.0274658	0.00335693	-0.0320435	4.22277	-0.636597	60.1434	1.05251	7.37063	-3.14787	0.00319824	-0.000939941	3.14787	
4.21296	2.65625	60.1613	4.99023	0.0204468	0.00213623	-0.0909424	4.21906	-0.632026	60.1413	1.05247	7.37112	-3.15205	0.00327148	-0.00231934	3.15205	
4.86445	-0.59375	60.1613	4.99084	0.0241089	0.00366211	0.00244141	4.21549	-0.626707	60.1392	1.05244	7.37158	-3.1561	0.00362549	-0.00384521	3.1561	
5.38564	-0.03125	59.8211	4.98749	0.0274658	0.00274658	-0.0424194	4.21242	-0.620963	60.1372	1.0524	7.37204	-3.15962	0.00354004	-0.00540771	3.15962	
4.51699	-0.5	59.3108	4.9884	0.0256348	0.00366211	-0.00488281	4.20997	-0.615213	60.135	1.05236	7.37253	-3.16257	0.0036377	-0.00644531	3.16257	
2.77969	-1.09375	59.8424	4.99664	0.0234985	0.00457764	0.137634	4.20766	-0.609612	60.1326	1.05232	7.37309	-3.16543	0.00366211	-0.00183105	3.16543	
7.29668	-1.625	59.8424	4.99542	0.0262451	0.00213623	0.0119019	4.20551	-0.604497	60.1299	1.05227	7.37368	-3.16817	0.00358887	-0.002771	3.16817	
3.73521	-0.21875	60.0975	4.99237	0.0247192	0.00335693	0.00610352	4.20411	-0.599893	60.1273	1.05223	7.37428	-3.17018	0.00356445	-0.000854492	3.17018	
3.64834	-1.84375	59.9699	4.98932	0.0256348	0.00244141	-0.0753784	4.203	-0.595684	60.1246	1.05218	7.37488	-3.17188	0.00352783	-0.0020874	3.17188	
3.60491	-0.78125	60.055	4.98901	0.0234985	0.00274658	-0.017395	4.20159	-0.59198	60.122	1.05213	7.37548	-3.17388	0.0036499	-0.00264893	3.17388	
3.43118	-1.40625	60.2251	4.98657	0.0234985	0.00457764	0.0506592	4.19984	-0.588784	60.1194	1.05209	7.37606	-3.17621	0.00377197	-0.00114746	3.17621	
3.77864	-0.65625	61.1607	4.9881	0.0265503	0.00335693	0.0424194	4.19776	-0.585994	60.1171	1.05205	7.37657	-3.17881	0.00379639	0.00196533	3.17881	
3.47461	-1.34375	59.9061	4.99084	0.0274658	0.000305176	0.0387573	4.19539	-0.583568	60.1152	1.05202	7.377	-3.18161	0.0036499	0.00238037	3.18161	
3.04028	-1.375	59.9168	4.98993	0.0244141	0.00305176	0.0210571	4.19263	-0.581597	60.1135	1.05199	7.3774	-3.18477	0.00369873	0.00473633	3.18477	
3.38774	-0.59375	59.7998	4.98688	0.0247192	0.00518799	-0.0436401	4.18938	-0.58006	60.1116	1.05195	7.37782	-3.18844	0.00374756	0.00178223	3.18844	
5.03818	-5.375	60.3527	4.97772	0.0256348	0.00457764	-0.0497437	4.18594	-0.579449	60.1097	1.05192	7.37824	-3.1923	0.00373535	7.32422E-005	3.1923	
5.16848	0.53125	60.3314	4.9762	0.0238037	0.00366211	-0.00427246	4.18292	-0.580178	60.108	1.05189	7.37864	-3.19572	0.00362549	-0.000354004	3.19572	
4.99475	-0.09375	60.3527	4.97986	0.0247192	0.00457764	-0.0537109	4.18057	-0.581204	60.1065	1.05186	7.37899	-3.19842	0.0036499	-0.0024292	3.19842	
4.03923	-0.4375	62.2876	4.98322	0.0256348	0.00274658	0.0256348	4.17868	-0.581848	60.1054	1.05184	7.37922	-3.20054	0.00355225	7.32422E-005	3.20054	
4.51699	-0.34375	60.14	4.97833	0.0259399	0.00305176	0.0088501	4.177	-0.582313	60.1051	1.05184	7.37928	-3.20229	0.00358887	0.00177002	3.20229	
2.60596	-0.71875	60.2676	4.98444	0.0265503	0.00213623	-0.093689	4.17521	-0.582685	60.1053	1.05184	7.37926	-3.20405	0.00355225	-0.00159912	3.20405	
3.90894	-0.90625	59.8424	4.97894	0.0247192	0.00427246	0.0671387	4.17301	-0.583101	60.1054	1.05184	7.37923	-3.20622	0.00356445	-0.00102539	3.20622	
4.60386	0.46875	60.1613	4.97467	0.0222778	0.00335693	0.0289917	4.17064	-0.583459	60.1054	1.05185	7.37922	-3.20858	0.00358887	-0.00098877	3.20858	
6.16743	0.15625	60.3952	4.97101	0.0253296	0.00396729	-0.027771	4.16874	-0.583414	60.1055	1.05185	7.3792	-3.21046	0.00336914	-0.00258789	3.21046	
4.2564	-0.15625	60.4802	4.97437	0.0268555	0.00335693	-0.0195313	4.16762	-0.582912	60.1058	1.05185	7.37915	-3.21153	0.00332031	-0.00455322	3.21153	
3.77864	-1.03125	59.5978	4.97925	0.0247192	0.00396729	-0.0186157	4.16681	-0.58225	60.1061	1.05186	7.37908	-3.21227	0.00334473	-0.00401611	3.21227	
3.12715	-1.28125	59.8211	4.97955	0.0259399	0.00396729	0.0442505	4.16576	-0.581792	60.1062	1.05186	7.37904	-3.21328	0.00341797	0.0013916	3.21328	
1.69387	-0.375	59.7998	4.97894	0.0262451	0.00274658	0.00396729	4.16398	-0.581605	60.1062	1.05186	7.37906	-3.21507	0.00338135	0.00145264	3.21507	
-8.03503	-1.5625	59.8211	4.96307	0.0238037	0.00213623	-0.0109863	4.15945	-0.581622	60.1059	1.05185	7.37911	-3.21966	0.00335693	0.00270996	3.21966	
4.95132	1.84375	59.8636	4.97528	0.0256348	0.00366211	0.0314331	4.15103	-0.581533	60.1055	1.05185	7.3792	-3.22818	0.00335693	0.0041626	3.22818	
3.95237	-0.71875	60.2463	4.97772	0.0247192	0.00213623	-0.0622559	4.14123	-0.580869	60.105	1.05184	7.37931	-3.23809	0.00325928	-0.00383301	3.23809	
4.29983	-0.59375	59.6085	4.97772	0.0265503	0.00366211	-0.0222778	4.13186	-0.579897	60.1045	1.05183	7.37944	-3.24758	0.00332031	-0.0052002	3.24758	
4.56042	-0.59375	58.7367	4.97833	0.0256348	0.00579834	0.0460815	4.12291	-0.578986	60.1036	1.05181	7.37964	-3.25672	0.00341797	-0.00360107	3.25672	
2.90999	-0.875	59.9699	4.98077	0.0274658	0.00640869	0.0280762	4.11425	-0.57816	60.1022	1.05179	7.37994	-3.26569	0.00357666	0.000537109	3.26569	
3.77864	-0.625	60.0125	4.9762	0.0271606	0.00366211	-0.00396729	4.10554	-0.577465	60.1007	1.05176	7.3803	-3.27476	0.00361328	0.00107422	3.27476	
6.86235	0.5625	60.0125	4.9881	0.0256348	0.00335693	0.00701904	4.09727	-0.576678	60.0991	1.05173	7.38066	-3.28339	0.00356445	-0.000671387	3.28339	
5.47251	2.375	59.8849	4.96796	0.0244141	0.00274658	-0.0131226	4.09031	-0.575115	60.0975	1.05171	7.38102	-3.29071	0.00354004	-0.00289307	3.29071	
3.77864	-0.625	59.9487	4.97192	0.0231934	0.00366211	0.0177002	4.0844	-0.572522	60.0958	1.05168	7.3814	-3.29699	0.00367432	-0.00373535	3.29699	
4.1261	0.34375	59.6297	4.97498	0.027771	0.00366211	0.0112915	4.07883	-0.569436	60.0941	1.05165	7.38179	-3.30296	0.00369873	-0.00412598	3.30296	
4.29983	-0.625	58.8962	4.97437	0.0265503	0.00213623	-0.039978	4.07346	-0.566192	60.092	1.05161	7.38225	-3.30879	0.00357666	-0.00397949	3.30879	
4.2564	0.03125	59.9912	4.97772	0.0234985	0.00305176	-0.0393677	4.06838	-0.562846	60.0896	1.05157	7.3828	-3.31442	0.00351563	-0.00356445	3.31442	
5.64624	-0.65625	60.1826	4.97589	0.0238037	0.00305176	0.0195313	4.06381	-0.559456	60.0871	1.05152	7.38337	-3.31956	0.00349121	-0.0026123	3.31956	
13.6378	0.34375	60.0975	4.97925	0.027771	0.00274658	0.00915527	4.06142	-0.555983	60.0846	1.05148	7.38392	-3.32251	0.00341797	-9.76563E-005	3.32251	
5.73311	0.09375	60.3314	4.97192	0.0244141	0.00366211	-0.0228882	4.06258	-0.552267	60.0823	1.05144	7.38444	-3.32186	0.00345459	-0.00203857	3.32186	
5.29878	0.0625	60.1188	4.97437	0.0247192	0.00305176	0.00610352	4.0659	-0.548246	60.0802	1.0514	7.38492	-3.31903	0.00345459	-0.00214844	3.31903	
3.38774	-0.9375	59.6085	4.98169	0.0241089	0.00457764	0.0448608	4.06963	-0.544137	60.0781	1.05137	7.38539	-3.31576	0.00355225	0.00339355	3.31576	
2.86655	-1.40625	60.2251	4.98657	0.0259399	0.00305176	-0.039978	4.07303	-0.540332	60.076	1.05133	7.38587	-3.31284	0.00350342	-0.000891113	3.31284	
3.12715	-0.65625	59.8636	4.98444	0.0259399	0.00274658	0.0558472	4.07569	-0.537009	60.0739	1.05129	7.38635	-3.31066	0.003479	0.000183105	3.31066	
4.69072	-0.46875	59.8849	4.97955	0.0247192	0.000915527	-0.0534058	4.07786	-0.533964	60.0718	1.05126	7.38682	-3.30896	0.00335693	-0.000842285	3.30896	
6.16743	-0.375	59.8211	4.98535	0.0234985	0.00274658	-0.0125122	4.08033	-0.530998	60.0696	1.05122	7.38731	-3.30698	0.00333252	-0.000561523	3.30698	
3.69177	-2.71875	59.9274	4.98199	0.0265503	0.00274658	-0.020752	4.08339	-0.528418	60.0674	1.05118	7.38781	-3.30442	0.00328369	-0.000646973	3.30442	
3.73521	-4.875	59.9593	4.98199	0.0265503	0.00396729	0.0363159	4.08649	-0.527258	60.0652	1.05114	7.38831	-3.30183	0.00328369	-0.000964355	3.30183	
3.56147	-0.8125	59.6404	4.98444	0.0234985	0.00518799	0.0674438	4.08923	-0.527872	60.0629	1.0511	7.38883	-3.2996	0.00338135	0.00157471	3.2996	
2.34536	-1.40625	60.5015	4.9881	0.0253296	0.00457764	-0.0012207	4.09139	-0.529363	60.0607	1.05106	7.38934	-3.29795	0.003479	0.00196533	3.29795	
3.47461	-0.96875	60.0337	4.9881	0.027771	0.00152588	-0.0100708	4.09275	-0.531186	60.0585	1.05102	7.38982	-3.29707	0.00339355	0.000305176	3.29707	
3.64834	-0.0625	60.4165	4.98291	0.0247192	0.00854492	-0.0280762	4.09353	-0.533145	60.0566	1.05099	7.39026	-3.29673	0.0036499	0.00167236	3.29673	
1.17268	0.28125	60.0869	4.98047	0.0216675	0.00427246	-0.0326538	4.0936	-0.53483	60.0548	1.05096	7.39066	-3.29706	0.00367432	0.00125732	3.29706	
4.2564	-1.28125	60.3633	4.98383	0.0247192	0.00457764	0.0100708	4.09271	-0.536246	60.0533	1.05093	7.39101	-3.2983	0.00362549	-0.000183105	3.2983	
3.73521	0.3125	60.0337	4.98596	0.0259399	0.00366211	-0.0231934	4.0914	-0.537585	60.0518	1.05091	7.39134	-3.29993	0.00351563	-0.00223389	3.29993	
3.73521	-0.53125	60.1613	4.99054	0.0274658	0.00366211	-0.0228882	4.09	-0.538728	60.0505	1.05088	7.39163	-3.30164	0.00351563	-0.00299072	3.30164	
3.43118	-0.46875	60.6929	4.9881	0.0231934	0.00396729	0.0234985	4.08837	-0.539686	60.0494	1.05086	7.39189	-3.30352	0.00354004	-0.00233154	3.30352	
4.1261	-0.25	59.9912	4.98901	0.0228882	0.00396729	0.0469971	4.08655	-0.540542	60.0485	1.05085	7.39209	-3.30554	0.00358887	7.32422E-005	3.30554	
3.8655	0.09375	60.1719	4.99115	0.0259399	0.00671387	0.0137329	4.08467	-0.541169	60.0477	1.05084	7.39227	-3.30759	0.00371094	-8.54492E-005	3.30759	
-1.9979	0.28125	60.3952	4.98444	0.0271606	0.00213623	-0.0631714	4.08185	-0.541403	60.0471	1.05082	7.39241	-3.31056	0.0036499	-0.00306396	3.31056	
4.82102	0.71875	60.2676	4.98749	0.0247192	0.00396729	0.0405884	4.07733	-0.541081	60.0466	1.05082	7.39252	-3.31519	0.00372314	0.000158691	3.31519	
2.69282	2.78125	59.8424	4.99542	0.0253296	0.00427246	0.0845337	4.07203	-0.539735	60.0462	1.05081	7.3926	-3.32057	0.00377197	0.00511475	3.32057	
3.08372	-1.46875	59.736	4.99542	0.0274658	0.00213623	-0.0418091	4.06645	-0.537355	60.0458	1.0508	7.39269	-3.32624	0.00373535	0.00266113	3.32624	
3.25745	-1.09375	59.5553	4.99634	0.0256348	0.00396729	-0.017395	4.06043	-0.534919	60.0452	1.05079	7.39283	-3.3324	0.00378418	0.00159912	3.3324	
4.08267	-0.78125	59.7998	4.99634	0.0250244	0.00518799	0.0204468	4.05422	-0.532924	60.0444	1.05078	7.39302	-3.3388	0.00384521	0.00333252	3.3388	
2.77969	-0.6875	60.055	4.99664	0.0256348	0.00274658	-0.00518799	4.04791	-0.531187	60.0434	1.05076	7.39323	-3.34532	0.00383301	0.00288086	3.34532	
4.64729	-0.5	60.0337	4.99878	0.0256348	0.00244141	-0.00335693	4.04153	-0.529593	60.0425	1.05074	7.39345	-3.35192	0.00374756	0.000952148	3.35192	
3.64834	-0.03125	59.9912	4.99268	0.0265503	0.00396729	-0.00213623	4.0353	-0.527992	60.0416	1.05073	7.39366	-3.35836	0.00378418	0.00246582	3.35836	
2.69282	5.65625	59.8424	4.99878	0.0265503	0.00274658	0.0350952	4.02906	-0.52533	60.0406	1.05071	7.39387	-3.36481	0.00378418	0.00163574	3.36481	
2.34536	-1.4375	59.7148	5.00122	0.0238037	0.00457764	-0.0115967	4.0223	-0.520907	60.0396	1.05069	7.3941	-3.37181	0.00393066	0.00330811	3.37181	
3.08372	-1.28125	59.6297	4.99786	0.0265503	0.00488281	-0.00579834	4.0149	-0.516083	60.0384	1.05067	7.39437	-3.37947	0.00401611	0.00357666	3.37947	
4.82102	0.46875	61.2138	4.98932	0.0262451	0.00335693	0.0216675	4.00734	-0.511655	60.0373	1.05065	7.39463	-3.38729	0.00404053	0.00527344	3.38729	
6.2543	0.28125	60.14	4.98901	0.0222778	-0.0012207	-0.0296021	4.0005	-0.507074	60.0365	1.05064	7.39481	-3.39431	0.00383301	0.00263672	3.39431	
8.16533	-0.40625	60.1188	4.9942	0.0231934	0.00427246	-0.0131226	3.99537	-0.502241	60.0359	1.05063	7.39493	-3.39955	0.00379639	-0.000585937	3.39955	
4.29983	-0.96875	60.1613	5.00214	0.027771	0.00335693	-0.0497437	3.99212	-0.497498	60.0355	1.05062	7.39503	-3.40291	0.00374756	-0.00252686	3.40291	
4.60386	-2.21875	60.1826	4.99054	0.0253296	0.00366211	0.0546265	3.98981	-0.493319	60.0351	1.05061	7.39511	-3.4053	0.00383301	6.10352E-005	3.4053	
4.08267	-0.59375	60.055	4.99237	0.0241089	0.00244141	-0.0180054	3.98784	-0.489911	60.0349	1.05061	7.39517	-3.40733	0.00358887	0.000463867	3.40733	
4.2564	-1.0625	59.9593	4.99237	0.0231934	0.00274658	-0.0216675	3.9861	-0.487012	60.0346	1.05061	7.39523	-3.40913	0.00352783	0.00090332	3.40913	
4.69072	-0.34375	61.873	4.98749	0.0241089	0.00335693	0.0198364	3.98464	-0.484387	60.0346	1.05061	7.39522	-3.41059	0.003479	0.00129395	3.41059	
6.03713	0.46875	60.2357	4.98688	0.0259399	0.00244141	0.0128174	3.9838	-0.481751	60.0352	1.05062	7.39509	-3.41129	0.00343018	0.00273437	3.41129	
8.2522	-0.34375	59.9274	4.98596	0.0247192	0.00213623	-0.00854492	3.9844	-0.47887	60.0362	1.05063	7.39488	-3.41048	0.00336914	0.00330811	3.41048	
3.04028	-1.78125	59.8211	4.99695	0.0265503	0.00427246	0.032959	3.98648	-0.476103	60.037	1.05065	7.39468	-3.40821	0.00338135	0.00368652	3.40821	
3.04028	-4.625	59.9274	4.99298	0.0265503	0.00396729	-0.015564	3.9887	-0.47446	60.0377	1.05066	7.39452	-3.40582	0.00338135	0.00118408	3.40582	
3.43118	-0.71875	59.8849	4.99207	0.0265503	0.00274658	0.0204468	3.99032	-0.474404	60.0383	1.05067	7.39438	-3.40406	0.00322266	0.00145264	3.40406	
3.90894	-0.5	60.5015	4.98566	0.0234985	0.00213623	-0.00671387	3.99155	-0.475073	60.0389	1.05068	7.39425	-3.4027	0.00322266	0.00371094	3.4027	
4.38669	-1.15625	59.5021	4.99054	0.0271606	0.00274658	0.00213623	3.99269	-0.475869	60.0395	1.05069	7.39411	-3.40142	0.00317383	0.00217285	3.40142	
3.95237	-0.84375	60.055	4.99054	0.0271606	0.00488281	-0.0500488	3.99389	-0.47691	60.04	1.0507	7.394	-3.40011	0.00319824	-0.00321045	3.40011	
2.34536	-0.96875	60.3314	4.98749	0.0228882	0.00305176	-0.0524902	3.99484	-0.478211	60.0405	1.05071	7.3939	-3.39906	0.00323486	-0.0036377	3.39906	
3.8655	-1.15625	59.8211	4.99054	0.0256348	0.00457764	0.0332642	3.99522	-0.47978	60.041	1.05072	7.39379	-3.39858	0.00325928	-0.00161133	3.39858	
2.30193	-4.40625	59.8849	4.98962	0.0283813	0.00457764	0.0720215	3.99502	-0.482189	60.0414	1.05072	7.3937	-3.39868	0.00323486	0.00045166	3.39868	
3.38774	-0.625	59.9487	4.98688	0.0244141	0.00366211	-0.0643921	3.9942	-0.485858	60.0417	1.05073	7.39363	-3.39943	0.00327148	-0.0019165	3.39943	
4.99475	0.21875	60.5015	4.97681	0.0238037	0.00518799	0.0106812	3.9931	-0.489941	60.042	1.05074	7.39356	-3.40045	0.00338135	-0.00135498	3.40045	
6.21086	0.21875	58.3965	4.97681	0.0241089	0.00213623	-0.0109863	3.99261	-0.493573	60.0422	1.05074	7.39352	-3.40091	0.00330811	-0.00170898	3.40091	
4.82102	0.125	60.1294	4.97955	0.0231934	0.00457764	-0.0344849	3.9931	-0.49665	60.0419	1.05073	7.39357	-3.40047	0.00338135	-0.00449219	3.40047	
2.08477	0.15625	60.1826	4.97955	0.0259399	0.00457764	0.0350952	3.99389	-0.499215	60.0415	1.05073	7.39368	-3.39979	0.00338135	-0.00262451	3.39979	
4.95132	-0.34375	60.0762	4.97375	0.0256348	0.00366211	0.0485229	3.99432	-0.501366	60.0411	1.05072	7.39376	-3.39943	0.00333252	-0.00045166	3.39943	
4.34326	2.4375	60.0975	4.97681	0.0247192	0.00335693	0.0402832	3.9948	-0.502834	60.0408	1.05071	7.39383	-3.39903	0.00333252	0.000292969	3.39903	
4.64729	-1.15625	60.14	4.98138	0.0241089	0.00335693	-0.0088501	3.99562	-0.503416	60.0405	1.05071	7.39389	-3.39827	0.00351563	0.00112305	3.39827	
5.29878	0.125	60.1081	4.97711	0.0256348	0.00396729	-0.0335693	3.99687	-0.503627	60.0403	1.05071	7.39394	-3.39706	0.00350342	0.000305176	3.39706	
5.34221	1.15625	60.3314	4.96887	0.0231934	0.00366211	0.0289917	3.99879	-0.503478	60.0402	1.0507	7.39397	-3.39517	0.00351563	0.00345459	3.39517	
5.21191	0	60.3101	4.97192	0.0259399	0.00152588	-0.0234985	4.00145	-0.502644	60.0402	1.0507	7.39396	-3.39251	0.00343018	0.00032959	3.39251	
2.47566	-1.21875	59.6085	4.98047	0.0265503	0.00274658	0.0119019	4.00437	-0.501537	60.0403	1.05071	7.39394	-3.38957	0.00344238	0.00152588	3.38957	
10.945	-0.8125	59.6935	4.98199	0.0247192	0.00213623	-0.0088501	4.00797	-0.500662	60.0402	1.0507	7.39395	-3.38598	0.00341797	0.00203857	3.38598	
4.03923	1.46875	59.853	4.97711	0.0253296	0.00488281	0.0143433	4.01337	-0.49972	60.04	1.0507	7.39401	-3.38065	0.003479	0.00181885	3.38065	
4.16953	-0.53125	60.0975	4.97681	0.0253296	0.00274658	-0.0588989	4.01968	-0.498253	60.0396	1.05069	7.39409	-3.37441	0.00349121	-0.0010498	3.37441	
3.82207	-0.5	59.9699	4.97528	0.0247192	0.00457764	0.0241089	4.02579	-0.496543	60.0393	1.05069	7.39418	-3.36838	0.00358887	0.000256348	3.36838	
4.43013	-0.3125	60.6503	4.97711	0.0259399	0.00427246	-0.00701904	4.03171	-0.494871	60.039	1.05068	7.39424	-3.36252	0.00358887	-0.00134277	3.36252	
4.47356	-0.8125	59.8849	4.97925	0.0259399	0.000305176	0.00854492	4.03759	-0.49325	60.0389	1.05068	7.39426	-3.35667	0.00344238	-0.000378418	3.35667	
4.95132	-0.84375	60.0018	4.97467	0.0247192	-0.00518799	-0.0012207	4.0436	-0.491812	60.0388	1.05068	7.39428	-3.35068	0.003125	-0.00124512	3.35068	
6.34116	-1.625	59.8424	4.98688	0.0265503	0.00396729	-0.00335693	4.0501	-0.490758	60.0387	1.05068	7.3943	-3.34421	0.00319824	-0.00111084	3.34421	
3.30088	-0.28125	59.9487	4.9762	0.0265503	0.00183105	-0.0314331	4.05711	-0.490116	60.0385	1.05067	7.39435	-3.33724	0.00316162	-0.00245361	3.33724	
5.64624	0.375	60.3101	4.96979	0.0234985	0.00396729	0.0274658	4.06424	-0.489473	60.0383	1.05067	7.3944	-3.33016	0.003125	0.000646973	3.33016	
5.25535	0.375	59.9593	4.9707	0.0256348	0.00396729	0.0119019	4.07168	-0.488417	60.0381	1.05067	7.39443	-3.32275	0.00316162	0.00322266	3.32275	
4.73416	0.125	61.0118	4.97284	0.0262451	0.00366211	0.0622559	4.07957	-0.486902	60.0382	1.05067	7.39442	-3.31485	0.003125	0.00438232	3.31485	
5.42908	0.15625	60.0869	4.97345	0.0250244	0.00152588	-0.0265503	4.08779	-0.485016	60.0385	1.05067	7.39435	-3.30656	0.00300293	0.000439453	3.30656	
5.42908	0.34375	60.0975	4.97559	0.0256348	0.000305176	-0.0445557	4.09644	-0.482774	60.039	1.05068	7.39424	-3.2978	0.00286865	0.00123291	3.2978	
-2.56252	-1.03125	60.0656	4.97589	0.0259399	0.00274658	0.0219727	4.10437	-0.480339	60.0395	1.05069	7.39412	-3.28975	0.002771	0.00168457	3.28975	
3.9958	-0.96875	60.0125	4.97955	0.0241089	0.00396729	0.0201416	4.11015	-0.478109	60.04	1.0507	7.39401	-3.28386	0.00284424	0.00292969	3.28386	
5.03818	-0.21875	60.3101	4.97467	0.0247192	0.00213623	-0.0326538	4.1148	-0.476154	60.0405	1.05071	7.3939	-3.27909	0.00274658	0.00300293	3.27909	
5.34221	0.375	60.3846	4.97284	0.0268555	0.000610352	-0.06073	4.11975	-0.474132	60.0411	1.05072	7.39375	-3.27401	0.00258789	-0.000830078	3.27401	
4.64729	0.25	59.8636	4.97345	0.0247192	0.00457764	0.0418091	4.12512	-0.471765	60.0419	1.05073	7.39359	-3.26846	0.00262451	-0.00109863	3.26846	
3.77864	-0.90625	59.8424	4.98199	0.0268555	0.00427246	0.0418091	4.13061	-0.469193	60.0425	1.05074	7.39344	-3.26283	0.00266113	-0.0010376	3.26283	
2.99685	-1.34375	59.736	4.9826	0.0271606	0.00762939	0.0265503	4.1357	-0.46687	60.043	1.05075	7.39332	-3.25762	0.00283203	0.000378418	3.25762	
-1.12925	-1.125	59.9061	4.9826	0.0234985	0.00396729	-0.050354	4.13939	-0.465071	60.0434	1.05076	7.39324	-3.25386	0.00283203	-0.000292969	3.25386	
3.69177	-0.875	59.9061	4.98322	0.0247192	0.00549316	-0.0158691	4.14106	-0.46374	60.0436	1.05076	7.39319	-3.25213	0.00290527	-0.0020874	3.25213	
3.69177	5.28125	59.7573	4.9826	0.0271606	0.00274658	0.00396729	4.14165	-0.461793	60.0437	1.05077	7.39317	-3.25151	0.0029541	-0.00098877	3.25151	
3.60491	-0.53125	60.0869	4.98688	0.0228882	0.00396729	0.0186157	4.14193	-0.458208	60.0437	1.05077	7.39317	-3.25124	0.00300293	-0.000720215	3.25124	
3.69177	-0.9375	59.332	4.9826	0.0253296	0.00396729	0.0357056	4.14189	-0.453954	60.0436	1.05076	7.3932	-3.25131	0.00307617	0.00106201	3.25131	
3.30088	-1.375	58.8217	4.98566	0.0271606	0.00335693	-0.0524902	4.1415	-0.450154	60.043	1.05075	7.39332	-3.25182	0.00301514	-0.00161133	3.25182	
1.95447	-1.25	59.7148	4.99146	0.0250244	0.00701904	0.0369263	4.14046	-0.446973	60.042	1.05073	7.39356	-3.25311	0.00318604	0.00222168	3.25311	
4.29983	-1.21875	59.7254	4.98566	0.0256348	0.00457764	0.0143433	4.13866	-0.444417	60.0406	1.05071	7.39387	-3.25521	0.00318604	0.00183105	3.25521	
4.73416	-0.03125	60.2251	4.97955	0.0244141	0.00335693	-0.0326538	4.13673	-0.44225	60.0392	1.05069	7.3942	-3.25746	0.00314941	0.000805664	3.25746	
5.29878	2.75	60.3314	4.98322	0.0259399	0.00396729	-0.0326538	4.13526	-0.439657	60.0378	1.05066	7.3945	-3.25923	0.0032959	-0.000842285	3.25923	
4.34326	0.15625	60.1613	4.98657	0.0259399	0.00488281	0.0405884	4.13433	-0.436009	60.0367	1.05064	7.39476	-3.26043	0.00369873	0.000830078	3.26043	
4.03923	-0.59375	59.5447	4.98749	0.0259399	0.00305176	0.0274658	4.13366	-0.431835	60.0356	1.05062	7.395	-3.26134	0.00366211	0.00206299	3.26134	
3.56147	-0.625	59.9912	4.98932	0.0231934	0.00457764	0.0442505	4.13293	-0.427796	60.0344	1.0506	7.39528	-3.26234	0.00377197	0.00509033	3.26234	
3.25745	-0.96875	60.2145	4.99237	0.0274658	0.00244141	-0.0280762	4.1319	-0.424068	60.0332	1.05058	7.39555	-3.26365	0.00371094	0.00286865	3.26365	
8.72996	-0.46875	60.0125	4.9884	0.0259399	0.00213623	-0.00762939	4.13125	-0.420678	60.032	1.05056	7.39581	-3.26455	0.0036377	0.0020874	3.26455	
4.29983	0.625	60.2995	4.98901	0.0201416	0.00457764	0.00213623	4.13195	-0.417344	60.031	1.05054	7.39604	-3.26409	0.00367432	-0.000317383	3.26409	
5.38564	-2.78125	60.7248	4.98566	0.0241089	0.00396729	-0.0720215	4.13358	-0.414178	60.0302	1.05053	7.39622	-3.26264	0.00377197	-0.00213623	3.26264	
3.8655	0.09375	60.0762	4.98657	0.0283813	0.00396729	0.0338745	4.13553	-0.411616	60.0297	1.05052	7.39634	-3.26081	0.00391846	0.00100098	3.26081	
2.51909	-1.21875	60.3208	4.99542	0.0265503	0.00305176	0.00518799	4.13727	-0.40948	60.0294	1.05051	7.39641	-3.25914	0.00393066	0.00032959	3.25914	
2.69282	-1.46875	61.7454	4.99634	0.0234985	0.00427246	0.0402832	4.13818	-0.407757	60.0294	1.05051	7.3964	-3.25822	0.00394287	0.00113525	3.25822	
3.43118	-1.03125	60.0337	4.99695	0.0256348	-0.00366211	-0.0582886	4.13825	-0.406645	60.0301	1.05053	7.39626	-3.25801	0.00371094	0.000109863	3.25801	
3.47461	-1.21875	60.0443	4.99664	0.0247192	0.00305176	-0.00946045	4.13777	-0.406056	60.0309	1.05054	7.39606	-3.25829	0.00380859	0.00216064	3.25829	
3.47461	-0.78125	59.8849	4.9942	0.0271606	0.00396729	-0.0405884	4.13689	-0.405896	60.0317	1.05056	7.39587	-3.25899	0.00378418	-0.00113525	3.25899	
3.21401	-7.15625	60.1826	4.99207	0.0231934	0.00396729	0.00396729	4.13558	-0.407031	60.0325	1.05057	7.3957	-3.26011	0.00377197	-0.00264893	3.26011	
3.77864	-0.53125	59.9061	4.9939	0.0238037	0.00335693	0.00427246	4.13388	-0.410298	60.0333	1.05058	7.39553	-3.26164	0.00360107	-0.00354004	3.26164	
3.17058	-1.28125	59.9699	4.99481	0.0265503	0.00457764	0.0283813	4.13184	-0.41467	60.034	1.05059	7.39537	-3.26353	0.00362549	-0.000390625	3.26353	
2.34536	-1.84375	62.1175	4.99786	0.0286865	0.00244141	0.00518799	4.12924	-0.419398	60.0349	1.05061	7.39515	-3.26591	0.00350342	0.00045166	3.26591	
3.73521	-1.25	60.055	4.99756	0.0241089	0.00274658	-0.039978	4.12596	-0.424666	60.0365	1.05064	7.3948	-3.26884	0.00350342	-0.00130615	3.26884	
2.47566	0	60.4377	4.99023	0.0241089	0.00518799	-0.00518799	4.12215	-0.43016	60.0384	1.05067	7.39437	-3.27222	0.00355225	-0.0022583	3.27222	
3.77864	-0.53125	60.1613	4.97681	0.0259399	0.00274658	0.0500488	4.11784	-0.435471	60.0404	1.05071	7.39392	-3.27608	0.00350342	-0.00168457	3.27608	
4.51699	0.65625	60.3314	4.98901	0.0250244	0.00244141	-0.0189209	4.11339	-0.44039	60.0424	1.05074	7.39346	-3.28007	0.0034668	-0.000341797	3.28007	
4.29983	-0.59375	60.14	4.99542	0.0256348	0.00366211	-0.00152588	4.10919	-0.444835	60.0445	1.05078	7.39298	-3.28379	0.00333252	-0.00187988	3.28379	
3.95237	-1.21875	60.3101	4.9939	0.0256348	0.00366211	0.0274658	4.10524	-0.44912	60.0467	1.05082	7.3925	-3.28725	0.0032959	-0.00135498	3.28725	
4.34326	-0.90625	59.6935	4.98932	0.0256348	0.00366211	0.0338745	4.10145	-0.453587	60.0488	1.05085	7.39202	-3.29057	0.00330811	0.00130615	3.29057	
3.95237	-0.46875	60.1826	4.98932	0.0256348	0.00518799	0.00427246	4.09782	-0.45816	60.0508	1.05089	7.39157	-3.29375	0.00335693	0.0027832	3.29375	
2.21506	-0.46875	60.3101	4.9884	0.0247192	0.00335693	0.00701904	4.09402	-0.462647	60.0528	1.05092	7.39113	-3.29711	0.0032959	0.00144043	3.29711	
-1.47671	0.53125	60.5228	4.96887	0.0222778	0.00427246	-0.0119019	4.08887	-0.466827	60.0548	1.05096	7.39066	-3.30179	0.00334473	-0.000134277	3.30179	
4.90789	2.21875	60.2251	4.98535	0.0265503	0.00244141	0.00701904	4.08202	-0.470134	60.057	1.051	7.39017	-3.30814	0.00325928	-0.00162354	3.30814	
2.99685	-1.875	59.8742	4.99359	0.0283813	0.000610352	-0.0100708	4.07464	-0.472555	60.0592	1.05104	7.38967	-3.31503	0.00318604	-0.00090332	3.31503	
3.77864	-0.46875	59.7573	4.99023	0.0241089	0.00427246	-0.00549316	4.06726	-0.474907	60.0613	1.05107	7.3892	-3.32195	0.00327148	-0.000817871	3.32195	
3.8655	-0.65625	58.5772	4.99023	0.0247192	0.00305176	0.00610352	4.05985	-0.477421	60.0629	1.0511	7.38883	-3.32899	0.00321045	-0.00065918	3.32899	
3.77864	-0.875	60.1507	4.9881	0.0259399	0.00518799	0.010376	4.05255	-0.479964	60.064	1.05112	7.38859	-3.33604	0.00325928	0.00263672	3.33604	
5.29878	-0.28125	60.1613	4.98322	0.0234985	0.00366211	0.0515747	4.04559	-0.482536	60.0648	1.05113	7.3884	-3.34281	0.00324707	0.00334473	3.34281	
9.55518	-0.78125	60.0443	4.98322	0.0247192	0.00396729	0.0698853	4.04007	-0.485063	60.0657	1.05115	7.3882	-3.34813	0.00328369	0.00593262	3.34813	
3.95237	1	59.8211	4.98627	0.0247192	0.000915527	0.00518799	4.03663	-0.487332	60.0665	1.05116	7.38802	-3.35139	0.00314941	0.00452881	3.35139	
3.47461	-0.84375	59.9487	4.98352	0.0259399	0.00457764	0.00579834	4.03406	-0.489161	60.0672	1.05118	7.38787	-3.3538	0.003479	0.00709229	3.3538	
3.08372	-1.96875	59.5021	4.9881	0.0250244	0.00396729	0.0439453	4.03125	-0.491035	60.0677	1.05118	7.38776	-3.35651	0.00351563	0.00922852	3.35651	
3.73521	-1	58.7473	4.98383	0.0259399	0.00213623	-0.0839233	4.02811	-0.493436	60.0677	1.05119	7.38774	-3.35963	0.00344238	0.00749512	3.35963	
5.55938	-0.09375	60.3952	4.97681	0.0247192	0.00274658	0.00854492	4.02508	-0.496076	60.0674	1.05118	7.38782	-3.36275	0.00339355	0.00767822	3.36275	
6.90579	0.78125	60.2463	4.97559	0.0253296	0.00213623	-0.0241089	4.02303	-0.49838	60.0669	1.05117	7.38792	-3.36489	0.00334473	0.00654297	3.36489	
15.2883	-0.09375	60.2889	4.9881	0.0247192	0.00213623	-0.0350952	4.02393	-0.500081	60.0667	1.05117	7.38799	-3.36405	0.00324707	0.00400391	3.36405	
5.03818	-1.21875	60.2145	4.97772	0.0234985	0.00213623	0.00640869	4.02891	-0.501508	60.0665	1.05116	7.38802	-3.35911	0.00323486	0.00405273	3.35911	
4.34326	-0.46875	60.1294	4.97711	0.0274658	0.00274658	-0.027771	4.03581	-0.503041	60.0665	1.05116	7.38803	-3.35222	0.00323486	0.00454102	3.35222	
4.47356	-0.6875	60.1188	4.97955	0.0250244	0.00396729	0.00823975	4.0428	-0.504648	60.0664	1.05116	7.38803	-3.34523	0.00318604	0.00507813	3.34523	
4.56042	0.34375	60.8417	4.97833	0.0241089	0.00427246	0.0286865	4.0498	-0.50612	60.0666	1.05117	7.388	-3.3382	0.00324707	0.00422363	3.3382	
5.38564	0.21875	60.055	4.97589	0.0244141	0.00152588	-0.0180054	4.05699	-0.507191	60.067	1.05117	7.38791	-3.33092	0.00321045	0.00426025	3.33092	
7.25325	0.8125	60.3314	4.97223	0.0271606	0.00396729	0.000305176	4.06491	-0.507663	60.0675	1.05118	7.38779	-3.32288	0.00322266	0.0043335	3.32288	
4.77759	0.5625	60.14	4.96735	0.0244141	0.00366211	0.0012207	4.07386	-0.507431	60.0681	1.05119	7.38766	-3.31379	0.00322266	0.00328369	3.31379	
3.47461	-2.59375	59.7573	4.97711	0.0259399	0.00396729	0.00640869	4.08312	-0.506993	60.0687	1.0512	7.38752	-3.3044	0.00323486	0.00218506	3.3044	
3.21401	-9.0625	59.7254	4.98016	0.0259399	0.00213623	0.0430298	4.09184	-0.50838	60.0691	1.05121	7.38742	-3.29558	0.00311279	0.00373535	3.29558	
3.73521	-0.875	60.0869	4.97589	0.0250244	0.00213623	-0.00274658	4.09983	-0.512753	60.0694	1.05121	7.38736	-3.28753	0.00306396	0.00334473	3.28753	
3.90894	-0.78125	60.7248	4.97589	0.0247192	0.00335693	0.0149536	4.10726	-0.518454	60.0697	1.05122	7.38729	-3.28003	0.00302734	0.00441895	3.28003	
4.38669	-0.96875	60.0762	4.97375	0.0259399	0.000305176	-0.0350952	4.11436	-0.524162	60.0702	1.05123	7.38718	-3.27282	0.00294189	0.00273437	3.27282	
3.08372	-0.28125	60.0975	4.97284	0.0241089	0.0088501	0.0259399	4.1211	-0.529811	60.0708	1.05124	7.38704	-3.26594	0.00327148	0.0041748	3.26594	
-1.69387	-0.65625	60.1826	4.97833	0.0259399	0.00366211	-0.0430298	4.12642	-0.535274	60.0714	1.05125	7.3869	-3.26048	0.00324707	0.00267334	3.26048	
3.8655	-1	59.7786	4.9765	0.0268555	0.00366211	0.0222778	4.12955	-0.540616	60.072	1.05126	7.38677	-3.25722	0.00327148	0.00332031	3.25722	
2.51909	1.1875	59.651	4.97711	0.0234985	0.00274658	0.067749	4.13133	-0.545663	60.0724	1.05127	7.38668	-3.25534	0.00317383	0.00561523	3.25534	
4.21296	-0.96875	59.7892	4.98016	0.0256348	0.00396729	0.0604248	4.13253	-0.550133	60.0726	1.05127	7.38664	-3.25411	0.00318604	0.00596924	3.25411	
5.34221	0.53125	60.5015	4.9707	0.0253296	0.00274658	-0.00457764	4.13364	-0.554139	60.0727	1.05127	7.38662	-3.25298	0.00313721	0.00299072	3.25298	
4.34326	0.28125	60.3739	4.97253	0.0247192	0.00488281	-0.0271606	4.13514	-0.557604	60.0729	1.05128	7.38657	-3.25143	0.0032959	0.00169678	3.25143	
3.9958	0.03125	59.9593	4.97589	0.0231934	0.00457764	-0.0344849	4.13681	-0.560426	60.0733	1.05128	7.38649	-3.24968	0.0032959	8.54492E-005	3.24968	
-1.69387	-0.09375	60.0975	4.97101	0.0259399	0.00213623	-0.0564575	4.13751	-0.562764	60.0736	1.05129	7.38641	-3.2489	0.00322266	-0.00393066	3.2489	
3.73521	0.625	60.1613	4.97711	0.0256348	0.00427246	-0.000610352	4.13628	-0.564598	60.074	1.05129	7.38633	-3.25004	0.00330811	-0.000598145	3.25004	
3.9958	5.96875	59.7786	4.97711	0.0259399	0.00396729	0.00366211	4.13406	-0.564912	60.0743	1.0513	7.38625	-3.2522	0.00335693	-0.000793457	3.2522	
3.8655	-0.34375	60.0762	4.98047	0.0231934	0.00335693	0.0180054	4.13176	-0.562968	60.0745	1.0513	7.3862	-3.25444	0.00340576	0.000891113	3.25444	
4.95132	-0.28125	59.736	4.97528	0.0231934	0.00457764	0.0363159	4.12957	-0.559968	60.0747	1.05131	7.38617	-3.25661	0.00350342	0.00374756	3.25661	
5.51594	0.84375	60.5228	4.97375	0.0259399	0.00457764	-0.00457764	4.12788	-0.556734	60.0748	1.05131	7.38615	-3.25828	0.00360107	0.00330811	3.25828	
4.60386	0.25	60.2145	4.97437	0.0271606	-0.000915527	-0.0250244	4.12688	-0.553011	60.075	1.05131	7.38611	-3.25923	0.00345459	0.00341797	3.25923	
5.64624	-1.375	59.9912	4.98718	0.0259399	0.00366211	-0.00457764	4.12652	-0.54908	60.0752	1.05132	7.38604	-3.25953	0.00344238	0.00290527	3.25953	
2.73625	-0.53125	59.7786	4.99023	0.0259399	0.00457764	0.0125122	4.1265	-0.545415	60.0755	1.05132	7.38599	-3.2595	0.00345459	0.0022583	3.2595	
2.69282	4.8125	59.938	4.98444	0.0268555	0.00274658	0.050354	4.12606	-0.541172	60.0756	1.05132	7.38597	-3.25991	0.00350342	0.00499268	3.25991	
3.60491	-0.71875	60.0975	4.98749	0.0247192	0.00366211	0.0540161	4.1249	-0.535441	60.0756	1.05132	7.38597	-3.26108	0.00349121	0.00714111	3.26108	
3.51804	-0.90625	59.9274	4.98566	0.0265503	0.00396729	0.0216675	4.1233	-0.529196	60.0755	1.05132	7.38598	-3.26268	0.00350342	0.00795898	3.26268	
3.60491	-0.71875	62.1175	4.98657	0.0259399	0.00213623	-0.0210571	4.1214	-0.523344	60.0758	1.05133	7.38593	-3.26452	0.00343018	0.00686035	3.26452	
4.77759	-0.625	60.055	4.98657	0.0256348	0.00152588	-0.0314331	4.11943	-0.517832	60.0766	1.05134	7.38574	-3.26631	0.00340576	0.00388184	3.26631	
7.20981	-1.34375	59.9274	4.99054	0.0262451	0.00335693	0.0100708	4.11812	-0.512706	60.0777	1.05136	7.38549	-3.26737	0.00345459	0.00439453	3.26737	
2.30193	-1.875	59.6297	4.98749	0.0271606	0.00396729	0.0686646	4.11764	-0.508245	60.0786	1.05138	7.38528	-3.26764	0.003479	0.00654297	3.26764	
2.99685	-4.09375	59.7786	4.99329	0.0247192	0.00305176	-0.0216675	4.11692	-0.50505	60.0793	1.05139	7.38512	-3.2682	0.00358887	0.00708008	3.2682	
4.60386	0.46875	60.2357	4.98932	0.0247192	0.00366211	0.0158691	4.11567	-0.503142	60.0799	1.0514	7.385	-3.26933	0.00338135	0.00667725	3.26933	
4.16953	0.125	60.3952	4.98413	0.0253296	0.00396729	0.00762939	4.11445	-0.501458	60.0804	1.05141	7.38487	-3.27042	0.00339355	0.00870361	3.27042	
4.1261	-0.4375	61.267	4.99023	0.022583	0.00213623	-0.0601196	4.11337	-0.499478	60.0813	1.05142	7.38468	-3.27131	0.00333252	0.00540771	3.27131	
3.90894	-0.84375	60.14	4.99298	0.0256348	0.00457764	-0.0201416	4.1123	-0.497505	60.0825	1.05144	7.3844	-3.2721	0.00340576	0.00189209	3.2721	
5.64624	-0.59375	59.9699	4.99237	0.0271606	0.00335693	-0.0479126	4.11145	-0.495713	60.0839	1.05147	7.38408	-3.27263	0.00338135	-0.00244141	3.27263	
4.16953	-0.5625	60.2251	4.98901	0.0241089	0.00396729	-0.0180054	4.11109	-0.494079	60.0853	1.05149	7.38378	-3.2727	0.00343018	-0.00297852	3.2727	
3.38774	-3.90625	60.2676	4.99023	0.0231934	0.00488281	-0.0119019	4.11088	-0.493068	60.0866	1.05152	7.38348	-3.2726	0.00343018	-0.00236816	3.2726	
3.56147	-0.28125	60.2145	4.99115	0.0247192	0.00427246	0.015564	4.11037	-0.49313	60.088	1.05154	7.38316	-3.27279	0.00341797	-0.000366211	3.27279	
4.60386	0.53125	60.7248	4.98627	0.0247192	0.00366211	-0.00457764	4.10968	-0.493494	60.0895	1.05157	7.38282	-3.27314	0.003479	0.00170898	3.27314	
4.82102	-0.4375	58.6835	4.99115	0.0256348	0.00457764	0.0280762	4.1092	-0.493486	60.091	1.05159	7.38249	-3.2733	0.00349121	0.00285645	3.2733	
2.82312	-1.6875	59.7998	4.99573	0.0256348	0.00518799	-0.00183105	4.10882	-0.493487	60.092	1.05161	7.38226	-3.27344	0.00354004	0.00263672	3.27344	
0.781787	-1.5	59.9487	4.99664	0.0268555	0.00305176	-0.0137329	4.10766	-0.494006	60.0926	1.05162	7.38211	-3.27446	0.00352783	0.00136719	3.27446	
3.21401	-1.21875	59.8742	4.99054	0.0265503	0.00274658	-0.0131226	4.10517	-0.495117	60.0931	1.05163	7.382	-3.27684	0.00345459	-0.000610352	3.27684	
3.73521	1.40625	60.055	4.99542	0.0228882	0	-0.00274658	4.10191	-0.496274	60.0935	1.05164	7.38191	-3.28	0.00327148	-0.000537109	3.28	
4.08267	-0.625	60.14	4.9942	0.0244141	0.00213623	0.0109863	4.09851	-0.496932	60.0939	1.05164	7.38183	-3.28332	0.00339355	0.00090332	3.28332	
3.08372	-0.625	60.1826	4.99329	0.0271606	0.00335693	0.0662231	4.09501	-0.497332	60.0942	1.05165	7.38175	-3.28674	0.00338135	0.00373535	3.28674	
3.8655	-0.03125	59.0344	4.99146	0.0256348	0.00152588	-0.00610352	4.09129	-0.497705	60.0944	1.05165	7.38171	-3.29042	0.00325928	0.00299072	3.29042	
3.21401	-1.0625	60.055	4.98199	0.0247192	0.00152588	-0.0363159	4.08733	-0.498028	60.0943	1.05165	7.38173	-3.2944	0.00321045	-0.000476074	3.2944	
1.38984	-1.53125	59.7573	4.99481	0.0256348	0.00274658	0.0601196	4.08279	-0.498602	60.094	1.05164	7.38181	-3.29903	0.00317383	-0.000231934	3.29903	
14.5065	-1.28125	60.1613	4.99176	0.0234985	0.00518799	0.0463867	4.07905	-0.499686	60.0935	1.05164	7.38191	-3.30286	0.00322266	0.000756836	3.30286	
5.12505	1.96875	60.2676	4.98627	0.0247192	0.00335693	0.0137329	4.07842	-0.500752	60.0931	1.05163	7.38201	-3.30359	0.00327148	0.00214844	3.30359	
4.95132	0.625	60.3314	4.9826	0.0216675	0.00396729	-0.0247192	4.07989	-0.50096	60.0928	1.05162	7.38208	-3.30218	0.00336914	0.00241699	3.30218	
4.60386	-0.28125	59.9806	4.98291	0.0247192	0.00396729	-0.0241089	4.08183	-0.500394	60.0926	1.05162	7.38212	-3.3003	0.00339355	0.0010498	3.3003	
4.43013	-0.65625	61.15	4.98352	0.0271606	0.00396729	0.0186157	4.08405	-0.49963	60.0926	1.05162	7.38213	-3.29809	0.00339355	-0.000952148	3.29809	
4.56042	-0.34375	60.2676	4.98566	0.0256348	0.00152588	0.00274658	4.08645	-0.498883	60.0929	1.05163	7.38206	-3.29561	0.00333252	2.44141E-005	3.29561	
5.21191	-1.28125	60.1613	4.98749	0.0231934	0.00213623	0.0137329	4.08914	-0.49826	60.0934	1.05163	7.38195	-3.2928	0.00327148	-6.10352E-005	3.2928	
11.9005	-0.40625	60.2251	4.98932	0.0247192	0.00305176	0.00457764	4.09338	-0.497863	60.0939	1.05164	7.38182	-3.28844	0.00323486	-0.000183105	3.28844	
4.82102	1.5625	60.257	4.98749	0.0244141	0.00366211	-0.0442505	4.10017	-0.497254	60.0946	1.05166	7.38167	-3.2815	0.0032959	0.00045166	3.2815	
5.34221	0.28125	60.3314	4.97955	0.0259399	0.00366211	0.0289917	4.10835	-0.495892	60.0953	1.05167	7.38151	-3.27316	0.00325928	0.00241699	3.27316	
4.86445	0.46875	60.3739	4.9765	0.0250244	0.000915527	-0.0119019	4.11686	-0.493867	60.0961	1.05168	7.38133	-3.26446	0.00316162	0.00385742	3.26446	
3.43118	-2.09375	60.6929	4.98688	0.0271606	0.00274658	-0.0335693	4.12539	-0.491742	60.0971	1.0517	7.3811	-3.25571	0.00311279	0.00323486	3.25571	
3.21401	-1.375	59.9699	4.9884	0.0271606	0.000915527	0.0125122	4.13338	-0.490177	60.0983	1.05172	7.38083	-3.24745	0.0029541	0.00421143	3.24745	
5.03818	-0.375	60.055	4.99847	0.0247192	0.00396729	0.062561	4.14083	-0.489171	60.0995	1.05174	7.38056	-3.23973	0.00294189	0.00609131	3.23973	
-0.130298	-0.8125	60.1188	4.98413	0.0238037	0.00274658	0.0198364	4.1475	-0.488353	60.1006	1.05176	7.38031	-3.23281	0.00290527	0.00706787	3.23281	
4.08267	-1.09375	60.0231	4.98322	0.0247192	0.00274658	0.0106812	4.15273	-0.487741	60.1017	1.05178	7.38006	-3.22733	0.00283203	0.00637207	3.22733	
4.47356	-0.34375	59.8849	4.97955	0.0250244	0.00183105	0.00762939	4.15715	-0.487366	60.1027	1.0518	7.37984	-3.2227	0.00269775	0.00675049	3.2227	
4.16953	-0.375	60.0869	4.98047	0.0271606	0.00152588	-0.0341797	4.16149	-0.487036	60.1035	1.05181	7.37965	-3.21816	0.00263672	0.00593262	3.21816	
3.73521	-0.625	60.6503	4.99725	0.0244141	0.00274658	-0.00457764	4.16568	-0.486682	60.1044	1.05183	7.37945	-3.21378	0.00263672	0.00627441	3.21378	
2.86655	-1.09375	59.6829	4.98199	0.0234985	0.00396729	0.0259399	4.16938	-0.48646	60.1054	1.05184	7.37924	-3.20986	0.00279541	0.00742187	3.20986	
4.86445	-1.03125	59.853	4.98322	0.0265503	0.00610352	-0.0143433	4.17259	-0.48654	60.1062	1.05186	7.37905	-3.20647	0.0029541	0.00640869	3.20647	
-4.16953	0.21875	60.3314	4.97284	0.0265503	0.00213623	-0.0912476	4.1744	-0.486772	60.1069	1.05187	7.3789	-3.2045	0.00290527	0.000109863	3.2045	
5.38564	-0.65625	60.1826	4.97223	0.0259399	0.00396729	-0.00610352	4.17386	-0.486887	60.1076	1.05188	7.37874	-3.20488	0.00300293	0.000109863	3.20488	
5.03818	0.09375	60.0125	4.97284	0.0253296	0.0012207	0.017395	4.17255	-0.486851	60.1083	1.0519	7.37857	-3.20602	0.00299072	0.0022583	3.20602	
4.08267	-0.125	60.3314	4.97467	0.0259399	0.000915527	-0.0369263	4.17173	-0.486606	60.109	1.05191	7.37841	-3.20668	0.00291748	-0.00162354	3.20668	
4.95132	-0.4375	59.7679	4.97437	0.0241089	0.00213623	0.00518799	4.17116	-0.48616	60.1097	1.05192	7.37825	-3.20709	0.00279541	-0.00327148	3.20709	
4.38669	-0.34375	60.0762	4.97711	0.0271606	0.00274658	0.00396729	4.17088	-0.485637	60.1103	1.05193	7.37812	-3.20724	0.002771	-0.00366211	3.20724	
3.95237	-0.40625	60.2038	4.97711	0.0241089	0.00946045	-0.0469971	4.17076	-0.485068	60.1108	1.05194	7.378	-3.20724	0.00299072	-0.00455322	3.20724	
4.73416	-0.09375	60.4696	4.99237	0.0241089	0.000915527	-0.00701904	4.1707	-0.484411	60.1114	1.05195	7.37787	-3.20717	0.00286865	-0.00386963	3.20717	
4.73416	1.09375	60.5228	4.96796	0.022583	0.00396729	-0.0146484	4.17087	-0.4834	60.1121	1.05196	7.3777	-3.20683	0.00286865	-0.0052002	3.20683	
4.99475	6.78125	60.055	4.96857	0.0262451	0.00274658	-0.017395	4.17143	-0.480746	60.113	1.05198	7.3775	-3.20607	0.00291748	-0.00600586	3.20607	
2.86655	-1.40625	59.7998	4.97894	0.0265503	0.00152588	-0.0195313	4.1721	-0.475832	60.1139	1.05199	7.3773	-3.2052	0.00289307	-0.00733643	3.2052	
3.38774	-0.96875	59.1407	4.97772	0.0271606	0.00427246	0.0308228	4.17235	-0.470328	60.1145	1.052	7.37717	-3.20482	0.00294189	-0.00628662	3.20482	
3.73521	-0.59375	57.0038	4.9765	0.0256348	0.00396729	0.0363159	4.17208	-0.465335	60.1142	1.052	7.37724	-3.20515	0.0029541	-0.00306396	3.20515	
3.25745	-0.59375	59.7573	4.97925	0.0234985	0.000305176	0.0222778	4.17142	-0.460655	60.1128	1.05197	7.37756	-3.20614	0.00281982	-0.00333252	3.20614	
8.1219	0.28125	59.9593	4.97528	0.0256348	0.0012207	-0.0119019	4.17104	-0.456085	60.1108	1.05194	7.37801	-3.20697	0.00283203	-0.00333252	3.20697	
4.2564	-0.21875	59.9699	4.97559	0.0271606	0.00335693	0.00152588	4.17178	-0.451431	60.1087	1.0519	7.37848	-3.2067	0.00285645	-0.00192871	3.2067	
3.64834	2.75	60.0125	4.97772	0.0265503	0.00396729	-0.0411987	4.17305	-0.446256	60.1066	1.05187	7.37895	-3.2059	0.00297852	-0.00407715	3.2059	
3.43118	-1.28125	59.8955	4.99115	0.0247192	0.00152588	0.00457764	4.174	-0.440364	60.1046	1.05183	7.37942	-3.20541	0.00288086	-0.00639648	3.20541	
2.38879	-1.1875	59.9699	4.98108	0.0241089	0.00244141	0.0158691	4.17434	-0.434561	60.1025	1.05179	7.37989	-3.20555	0.00286865	-0.00655518	3.20555	
3.47461	-0.71875	58.0988	4.97772	0.0274658	0.00213623	-0.0222778	4.17388	-0.429369	60.1	1.05175	7.38044	-3.20656	0.00284424	-0.00787354	3.20656	
4.86445	-0.28125	60.3314	4.97589	0.020752	-0.0012207	0.0186157	4.17306	-0.424542	60.0971	1.0517	7.3811	-3.20805	0.00272217	-0.00743408	3.20805	
8.94712	0.53125	60.2145	4.97437	0.0241089	0.00427246	-0.039978	4.17311	-0.419737	60.094	1.05165	7.3818	-3.20869	0.00283203	-0.00766602	3.20869	
4.82102	0.53125	60.3952	4.98383	0.0241089	0.00518799	-0.0253296	4.17485	-0.414636	60.0912	1.0516	7.38243	-3.20759	0.00292969	-0.00849609	3.20759	
2.95342	-4.34375	60.0337	4.98199	0.0265503	0.00213623	0.0265503	4.17728	-0.409883	60.0886	1.05155	7.38303	-3.20575	0.00285645	-0.00847168	3.20575	
3.90894	-0.59375	59.9912	4.9826	0.0216675	0.00305176	0.0198364	4.1793	-0.406398	60.0861	1.05151	7.3836	-3.2043	0.00273437	-0.00710449	3.2043	
4.2564	-0.8125	60.4271	4.97925	0.0250244	0.00152588	-0.0524902	4.18099	-0.403767	60.0837	1.05146	7.38414	-3.20315	0.00270996	-0.0055542	3.20315	
4.1261	-0.53125	61.7985	4.97864	0.0271606	0.00274658	-0.0491333	4.18259	-0.401404	60.0817	1.05143	7.38459	-3.202	0.00266113	-0.00727539	3.202	
5.03818	0.125	60.1188	4.97955	0.0231934	0.00396729	0.0265503	4.18426	-0.399147	60.0804	1.05141	7.38488	-3.20062	0.002771	-0.00690918	3.20062	
3.60491	0.5625	60.5228	4.9826	0.0219727	0.00396729	0.0387573	4.18605	-0.396676	60.0795	1.05139	7.38509	-3.19904	0.00289307	-0.00388184	3.19904	
4.64729	0.3125	60.0975	4.97772	0.0256348	0.00213623	0.0369263	4.18779	-0.393803	60.0787	1.05138	7.38526	-3.19747	0.00289307	-0.0026123	3.19747	
2.56252	-1.3125	59.8955	4.9884	0.0265503	0.00152588	-0.00610352	4.18927	-0.390806	60.0781	1.05137	7.38541	-3.19614	0.00284424	-0.00301514	3.19614	
2.77969	-1.03125	59.9061	4.99084	0.0274658	0.00366211	-0.00946045	4.19005	-0.38819	60.0773	1.05135	7.38557	-3.19552	0.0026123	-0.00151367	3.19552	
2.90999	-0.5625	59.9699	4.97833	0.0256348	0.00213623	0.06073	4.18991	-0.386035	60.0765	1.05134	7.38575	-3.19584	0.00266113	0.00119629	3.19584	
3.08372	-0.6875	59.4809	4.99268	0.0234985	0.00335693	0.0012207	4.18899	-0.384156	60.0756	1.05132	7.38596	-3.19697	0.00263672	0.00183105	3.19697	
3.51804	-0.8125	60.14	4.98932	0.0241089	0.00457764	-0.00579834	4.18745	-0.382532	60.0745	1.0513	7.3862	-3.19875	0.00270996	0.00229492	3.19875	
1.25955	-0.78125	59.8636	4.9881	0.0274658	0.00213623	0.0088501	4.18514	-0.381207	60.0734	1.05128	7.38646	-3.20132	0.00273437	0.00343018	3.20132	
-0.99895	-0.9375	59.9912	4.97925	0.0247192	0.00274658	-0.0369263	4.18109	-0.380206	60.0722	1.05126	7.38673	-3.20564	0.00267334	0.000720215	3.20564	
3.56147	0.90625	59.9061	4.99207	0.0247192	0.00213623	-0.0234985	4.17503	-0.379275	60.071	1.05124	7.387	-3.21198	0.0026001	-0.00167236	3.21198	
1.69387	-1.59375	59.651	4.99634	0.0256348	0.00213623	0.0262451	4.1678	-0.378252	60.0697	1.05122	7.3873	-3.2195	0.00267334	-0.00151367	3.2195	
2.69282	-1.28125	60.0125	4.99634	0.0283813	0.00396729	0.00152588	4.15973	-0.377584	60.0683	1.05119	7.38762	-3.22789	0.0027832	-0.000976563	3.22789	
4.51699	-0.3125	59.1407	4.98871	0.0241089	0.00396729	0.0265503	4.15116	-0.377398	60.0667	1.05117	7.38798	-3.23682	0.00280762	2.44141E-005	3.23682	
4.60386	-0.0625	60.2995	4.98566	0.0241089	0.00640869	-0.0186157	4.14285	-0.377289	60.0649	1.05114	7.38839	-3.24554	0.00290527	0.000927734	3.24554	
2.1282	-0.15625	60.0762	4.98901	0.0256348	0.00396729	0.0106812	4.13471	-0.377043	60.0631	1.0511	7.38879	-3.25408	0.00300293	0.00117188	3.25408	
11.6834	-0.03125	60.1613	4.9765	0.0259399	0.00183105	0.0613403	4.12749	-0.376634	60.0614	1.05107	7.38918	-3.26169	0.00297852	0.00299072	3.26169	
4.16953	1.65625	60.14	4.99237	0.0234985	0.00274658	0.00854492	4.12255	-0.375782	60.0598	1.05105	7.38953	-3.26698	0.00300293	0.00422363	3.26698	
3.73521	-0.125	60.0975	4.99176	0.0253296	0.00274658	0.0674438	4.11892	-0.374237	60.0583	1.05102	7.38987	-3.27095	0.00316162	0.00617676	3.27095	
3.90894	-0.875	59.8211	4.98993	0.0271606	0.00274658	-0.00976563	4.11526	-0.372432	60.0569	1.051	7.39019	-3.27493	0.00310059	0.00738525	3.27493	
4.47356	-0.5625	60.055	4.97101	0.0231934	0.0012207	-0.0363159	4.11167	-0.370837	60.0554	1.05097	7.39052	-3.27885	0.00294189	0.0069458	3.27885	
5.47251	0.28125	60.4377	4.98749	0.0219727	0.00366211	-0.00823975	4.1085	-0.369334	60.054	1.05095	7.39084	-3.28234	0.00300293	0.0055542	3.28234	
4.64729	-0.46875	60.1826	4.98749	0.0256348	0.00183105	-0.0540161	4.106	-0.367727	60.0528	1.05092	7.39111	-3.28511	0.0029541	0.0026001	3.28511	
13.9419	-0.8125	59.9912	4.9942	0.0259399	0.00152588	0.0158691	4.10549	-0.366175	60.0518	1.05091	7.39135	-3.28586	0.0029541	0.00533447	3.28586	
2.95342	-0.71875	59.9274	4.99847	0.0259399	0.00274658	-0.0253296	4.10796	-0.364887	60.0507	1.05089	7.39158	-3.28362	0.0029541	0.00628662	3.28362	
3.17058	-0.65625	59.9912	4.99542	0.020752	0.00396729	0.00335693	4.11137	-0.363869	60.0497	1.05087	7.39183	-3.28046	0.0029541	0.00535889	3.28046	
3.90894	-1.28125	60.2145	4.98962	0.0259399	0.00152588	-0.0259399	4.11415	-0.363174	60.0486	1.05085	7.39206	-3.27791	0.00285645	0.002771	3.27791	
3.95237	-0.8125	60.6397	4.99146	0.0247192	0.00213623	0.00854492	4.1166	-0.362903	60.0478	1.05084	7.39226	-3.27566	0.00285645	0.00163574	3.27566	
3.77864	-0.84375	60.0975	4.99542	0.0256348	0.00213623	-0.00274658	4.11883	-0.362999	60.0471	1.05082	7.3924	-3.27357	0.00288086	0.00177002	3.27357	
4.2564	-0.71875	60.1613	4.9942	0.0241089	0.00305176	-0.0088501	4.12087	-0.363365	60.0467	1.05082	7.39251	-3.27164	0.00285645	0.00179443	3.27164	
13.1167	-0.65625	60.055	5.00153	0.0286865	0.00305176	-0.0485229	4.12422	-0.363949	60.0462	1.05081	7.3926	-3.26838	0.00289307	-0.00257568	3.26838	
2.51909	-2.5625	59.8424	4.99786	0.027771	0.00274658	0.00640869	4.13002	-0.364999	60.0458	1.0508	7.39269	-3.26267	0.00286865	-0.00236816	3.26267	
3.64834	-7.21875	59.9699	4.99237	0.0241089	0.00366211	0.0119019	4.13644	-0.367803	60.0454	1.05079	7.3928	-3.25636	0.00283203	-0.00166016	3.25636	
5.29878	0.03125	60.2463	4.98688	0.0234985	0.00427246	0.0500488	4.14241	-0.372913	60.0449	1.05079	7.39291	-3.2505	0.00291748	-1.2207E-005	3.2505	
5.12505	0	60.7354	4.98535	0.0262451	0.00366211	0.0152588	4.14861	-0.378724	60.0446	1.05078	7.39297	-3.24437	0.0029541	0.0020752	3.24437	
4.95132	-0.0625	60.4165	4.98596	0.0247192	0.00152588	-0.0460815	4.15519	-0.384102	60.0446	1.05078	7.39297	-3.23778	0.00292969	0.00117188	3.23778	
4.56042	-0.625	60.2889	4.9881	0.0256348	0.00488281	-0.00335693	4.16201	-0.38917	60.0449	1.05079	7.39291	-3.2309	0.00303955	-1.2207E-005	3.2309	
7.51384	-0.71875	60.1932	4.99146	0.0244141	0.00152588	-0.0177002	4.16935	-0.394134	60.0453	1.05079	7.39281	-3.22346	0.00294189	-0.00078125	3.22346	
4.34326	-1.3125	60.0869	4.98749	0.0247192	0.00274658	-0.00671387	4.17757	-0.399204	60.0458	1.0508	7.3927	-3.21514	0.00289307	-0.00211182	3.21514	
4.43013	-9.34375	60.2145	4.98932	0.0256348	0.00396729	0.00762939	4.1861	-0.405818	60.0463	1.05081	7.39258	-3.20648	0.00279541	-0.00106201	3.20648	
4.77759	-0.34375	60.2251	4.98566	0.0259399	0.00305176	0.0292969	4.19453	-0.415105	60.0469	1.05082	7.39244	-3.19792	0.00275879	-0.000317383	3.19792	
5.64624	1.21875	60.863	4.97467	0.0234985	0.00396729	0.0280762	4.2031	-0.425178	60.0477	1.05084	7.39227	-3.18916	0.00284424	-0.00164795	3.18916	
5.16848	0.34375	60.14	4.98077	0.0271606	0.00396729	0.0332642	4.21207	-0.434257	60.0488	1.05085	7.39203	-3.17996	0.00289307	-0.00065918	3.17996	
2.69282	-1.34375	59.8849	4.98505	0.0274658	0.00823975	-0.0131226	4.221	-0.442661	60.0499	1.05087	7.39177	-3.17076	0.00311279	-0.00388184	3.17076	
-0.955518	-1.09375	59.651	4.97986	0.0222778	0.00457764	-0.00946045	4.2285	-0.451031	60.0509	1.05089	7.39154	-3.16304	0.00318604	-0.00386963	3.16304	
3.73521	-0.59375	60.1507	4.98077	0.0247192	0.00488281	0.000305176	4.2338	-0.459469	60.0518	1.05091	7.39135	-3.15754	0.00333252	-0.00240479	3.15754	
4.43013	-0.34375	60.0125	4.98444	0.0271606	0.00396729	0.0735474	4.23799	-0.467734	60.0526	1.05092	7.39117	-3.15318	0.00334473	0.000866699	3.15318	
3.8655	-0.71875	60.0869	4.97864	0.0247192	0.00396729	0.0296021	4.24196	-0.475731	60.0533	1.05093	7.391	-3.14903	0.00343018	0.00421143	3.14903	
4.16953	-0.96875	59.8211	4.9826	0.0231934	0.00396729	-0.00915527	4.2457	-0.483579	60.054	1.05095	7.39084	-3.14514	0.00352783	0.00321045	3.14514	
4.99475	-1.40625	60.2251	4.98383	0.0259399	0.00396729	-0.0119019	4.24933	-0.491484	60.0547	1.05096	7.3907	-3.14137	0.00357666	0.00374756	3.14137	
3.25745	-0.78125	59.9699	4.97833	0.0265503	0.0012207	0.0152588	4.25291	-0.499516	60.0553	1.05097	7.39056	-3.13765	0.0034668	0.00422363	3.13765	
3.25745	-1.59375	59.9061	4.97864	0.0265503	0.00152588	-0.00244141	4.25601	-0.507665	60.0558	1.05098	7.39043	-3.13442	0.0034668	0.00516357	3.13442	
3.95237	-0.40625	60.0975	4.97955	0.0241089	0.00610352	-0.00335693	4.25849	-0.515893	60.0563	1.05099	7.39032	-3.13183	0.00362549	0.0046875	3.13183	
5.64624	6.5	60.4271	4.97345	0.0256348	0.00366211	0.0814819	4.26085	-0.522878	60.0569	1.051	7.3902	-3.12935	0.00368652	0.00805664	3.12935	
5.68967	0.375	60.2038	4.9707	0.0250244	0.00488281	-0.00213623	4.26373	-0.527283	60.0575	1.05101	7.39005	-3.12633	0.00375977	0.0083252	3.12633	
4.51699	0.71875	59.9061	4.97375	0.0247192	0.00213623	-0.027771	4.2672	-0.52997	60.0582	1.05102	7.38989	-3.12269	0.00372314	0.00915527	3.12269	
4.60386	0.46875	62.3088	4.97253	0.0241089	0.00335693	0.000610352	4.27091	-0.531881	60.0592	1.05104	7.38966	-3.11876	0.00374756	0.00892334	3.11876	
4.69072	-0.5625	60.0869	4.97589	0.0241089	-0.00366211	0.00701904	4.27469	-0.533226	60.0609	1.05107	7.38929	-3.1146	0.00345459	0.00872803	3.1146	
7.8613	-0.3125	60.0337	4.97772	0.0253296	0.00335693	-0.0375366	4.27908	-0.534342	60.0628	1.0511	7.38885	-3.10978	0.00341797	0.00522461	3.10978	
4.47356	-0.21875	59.8317	4.98322	0.0259399	0.00396729	-0.000305176	4.28451	-0.535307	60.0647	1.05113	7.38844	-3.10392	0.00343018	0.00460205	3.10392	
3.12715	-2.96875	60.3101	4.97009	0.0241089	0.00152588	-0.0619507	4.2902	-0.536482	60.0664	1.05116	7.38804	-3.09785	0.00343018	0.00396729	3.09785	
5.68967	0.875	60.4377	4.96735	0.0210571	0.00274658	-0.000610352	4.29557	-0.538103	60.0682	1.05119	7.38764	-3.09208	0.00334473	0.00407715	3.09208	
4.99475	0.03125	59.8636	4.96857	0.0274658	0.00274658	0.0292969	4.30111	-0.539517	60.07	1.05122	7.38723	-3.08612	0.00339355	0.00595703	3.08612	
2.95342	-1.375	60.8204	4.97528	0.0244141	0.00152588	0.020752	4.30668	-0.540615	60.0719	1.05126	7.38681	-3.08013	0.00334473	0.00705566	3.08013	
3.82207	-1.09375	59.651	4.98077	0.0265503	0.00213623	0.0170898	4.31166	-0.541931	60.0738	1.05129	7.38637	-3.0747	0.00327148	0.00743408	3.0747	
3.04028	-0.15625	59.7998	4.98138	0.0283813	0.00152588	-0.0183105	4.31592	-0.543441	60.0756	1.05132	7.38596	-3.07004	0.00321045	0.00552979	3.07004	
3.43118	-0.875	59.7679	4.97589	0.0241089	0.00305176	0.0256348	4.31941	-0.544916	60.0772	1.05135	7.3856	-3.06619	0.00317383	0.00543213	3.06619	
3.82207	-4.21875	59.8317	4.97925	0.0259399	0.00396729	-0.0292969	4.32223	-0.546951	60.0785	1.05137	7.3853	-3.06307	0.00317383	0.00292969	3.06307	
3.38774	-0.1875	60.0975	4.97833	0.0253296	0.00457764	0.0167847	4.32452	-0.550049	60.0797	1.05139	7.38504	-3.06053	0.00302734	0.00412598	3.06053	
3.77864	-0.71875	60.257	4.98932	0.0253296	0.00244141	-0.00152588	4.32627	-0.553522	60.0808	1.05141	7.38479	-3.05852	0.00294189	0.00444336	3.05852	
3.25745	-1.125	61.4158	4.97711	0.0271606	0.00396729	0.0149536	4.32748	-0.556957	60.0821	1.05144	7.38449	-3.05701	0.00290527	0.0050293	3.05701	
2.56252	-1.46875	59.8211	4.98505	0.0238037	0.00610352	-0.0100708	4.32795	-0.560615	60.0838	1.05147	7.38411	-3.05616	0.00299072	0.00168457	3.05616	
4.16953	-1.21875	59.9699	4.97894	0.0265503	0.00213623	-0.0509644	4.32767	-0.564616	60.0855	1.0515	7.38372	-3.05604	0.00291748	-0.00153809	3.05604	
4.77759	-0.375	60.2676	4.97345	0.0234985	0.00335693	-0.0308228	4.32715	-0.568792	60.0872	1.05153	7.38335	-3.0562	0.00289307	-0.00240479	3.0562	
4.99475	-1.78125	60.3314	4.97589	0.0247192	0.000915527	-0.0271606	4.32686	-0.57305	60.0888	1.05155	7.38297	-3.05611	0.002771	-0.00301514	3.05611	
5.68967	-0.03125	60.2038	4.97772	0.0241089	0.00366211	0.0189209	4.32708	-0.57742	60.0905	1.05158	7.38259	-3.05551	0.00286865	-0.00286865	3.05551	
4.03923	-0.40625	60.4165	4.98291	0.0241089	0.00396729	-0.0210571	4.32776	-0.581628	60.0923	1.05162	7.38219	-3.05442	0.00296631	-0.00361328	3.05442	
3.95237	-0.28125	58.0137	4.9826	0.0259399	0.00366211	0.00335693	4.32849	-0.585503	60.0938	1.05164	7.38185	-3.05336	0.00286865	-0.00334473	3.05336	
3.95237	-0.34375	59.9912	4.98566	0.0244141	0.00518799	0.038147	4.32897	-0.589083	60.0947	1.05166	7.38166	-3.05268	0.00292969	-0.00507813	3.05268	
2.17163	-0.34375	60.0975	4.97955	0.0238037	0.00366211	0.0146484	4.32893	-0.592375	60.0951	1.05166	7.38155	-3.05263	0.00288086	-0.00440674	3.05263	
8.86025	0.28125	60.055	4.97711	0.0222778	0.00457764	0.0418091	4.32886	-0.595302	60.0955	1.05167	7.38146	-3.0526	0.00297852	-0.00162354	3.0526	
5.47251	1.625	60.2782	4.97833	0.0265503	0.00518799	0.0299072	4.33004	-0.597471	60.096	1.05168	7.38136	-3.05132	0.00305176	-0.00045166	3.05132	
4.51699	-0.09375	60.14	4.97925	0.0271606	0.00457764	0.072937	4.33227	-0.598659	60.0964	1.05169	7.38126	-3.04899	0.00338135	0.00218506	3.04899	
2.69282	-1.21875	59.6722	4.99329	0.0259399	0.00396729	0.0552368	4.3344	-0.599401	60.0969	1.05169	7.38116	-3.04676	0.00340576	0.005896	3.04676	
2.60596	-1.375	58.7367	4.9939	0.0241089	0.00244141	-0.0430298	4.3357	-0.600351	60.0969	1.0517	7.38114	-3.04544	0.00334473	0.00418701	3.04544	
3.04028	-1.125	60.0125	4.99451	0.0259399	-0.000305176	0.00854492	4.33597	-0.601686	60.0965	1.05169	7.38124	-3.04527	0.00327148	0.00700684	3.04527	
3.21401	-0.96875	60.0231	4.99054	0.0234985	0.00396729	-0.0378418	4.33538	-0.603313	60.0958	1.05168	7.38139	-3.04601	0.00332031	0.00551758	3.04601	
14.5934	-1	60.0125	4.99054	0.0241089	0.00274658	0.0143433	4.33586	-0.60514	60.0952	1.05167	7.38154	-3.04568	0.00332031	0.00491943	3.04568	
2.77969	1.78125	59.9274	4.99084	0.0256348	0.00396729	-0.00305176	4.33909	-0.606711	60.0944	1.05165	7.38171	-3.04262	0.00341797	0.00396729	3.04262	
3.73521	-0.84375	59.9699	4.99146	0.0253296	0.00427246	-0.0305176	4.34322	-0.607584	60.0936	1.05164	7.38189	-3.03867	0.00350342	0.00206299	3.03867	
3.21401	-0.96875	59.9061	4.99634	0.0241089	0.00549316	-0.0222778	4.34659	-0.608185	60.0928	1.05162	7.38208	-3.03548	0.00366211	0.0019043	3.03548	
2.1282	-1.875	59.736	4.99725	0.0256348	0.00457764	0.00274658	4.34906	-0.609111	60.0918	1.05161	7.38229	-3.03323	0.00372314	0.00098877	3.03323	
3.08372	-0.96875	59.9912	4.99634	0.0241089	0.00305176	0.0332642	4.35039	-0.610508	60.0908	1.05159	7.38254	-3.03215	0.00368652	0.00349121	3.03215	
5.68967	-0.03125	60.3952	4.99023	0.0250244	0.000305176	-0.00762939	4.35113	-0.612074	60.0897	1.05157	7.38278	-3.03165	0.00351563	0.00251465	3.03165	
10.5541	-0.125	60.3208	4.98749	0.0247192	0.00457764	0.00213623	4.35303	-0.613385	60.0888	1.05155	7.38299	-3.02996	0.00360107	0.00266113	3.02996	
4.38669	-0.1875	60.1826	4.99146	0.0234985	0.00396729	0.00335693	4.357	-0.614342	60.088	1.05154	7.38316	-3.02616	0.00360107	0.00219727	3.02616	
4.29983	-0.71875	60.1507	4.99512	0.0259399	0.00366211	0.0253296	4.3618	-0.615074	60.0873	1.05153	7.38331	-3.02151	0.00350342	0.00361328	3.02151	
3.95237	-0.71875	60.1932	4.99298	0.0259399	0.00335693	0.0137329	4.36634	-0.615762	60.0868	1.05152	7.38344	-3.0171	0.00355225	0.00620117	3.0171	
3.95237	-1.125	60.3314	4.99512	0.0256348	0.000305176	-0.0595093	4.37053	-0.616553	60.0863	1.05151	7.38355	-3.01302	0.00343018	0.00505371	3.01302	
3.8655	-0.78125	60.2357	4.99054	0.0241089	0.00396729	0.0405884	4.3743	-0.617515	60.0859	1.0515	7.38363	-3.00933	0.00355225	0.00776367	3.00933	
5.60281	-0.625	60.544	4.99176	0.0256348	-0.00213623	0.00152588	4.3779	-0.618575	60.0858	1.0515	7.38367	-3.00577	0.00332031	0.00706787	3.00577	
3.04028	-0.09375	60.4271	4.98932	0.0259399	0.00274658	0.00152588	4.38147	-0.619543	60.0858	1.0515	7.38366	-3.00219	0.00327148	0.00797119	3.00219	
4.77759	-1.3125	60.14	4.98474	0.0256348	0.00213623	-0.00427246	4.38475	-0.620423	60.086	1.05151	7.38361	-2.99886	0.00321045	0.00766602	2.99886	
2.77969	0.6875	60.0337	4.99359	0.0262451	0.00183105	-0.000305176	4.38758	-0.621202	60.0863	1.05151	7.38354	-2.99597	0.00307617	0.00612793	2.99597	
2.82312	-1.625	59.9699	4.99969	0.0265503	0.00274658	0.00427246	4.38963	-0.621811	60.0866	1.05151	7.38349	-2.99386	0.00303955	0.00571289	2.99386	
3.25745	-1.09375	59.8424	4.99146	0.0244141	0.00183105	0.0436401	4.39069	-0.62258	60.0867	1.05152	7.38345	-2.99276	0.00292969	0.00578613	2.99276	
3.90894	-0.96875	60.0443	4.99573	0.0259399	0.00366211	0.015564	4.39105	-0.623678	60.0868	1.05152	7.38344	-2.99239	0.00286865	0.0052124	2.99239	
3.73521	-0.84375	60.1932	4.9942	0.0259399	0.00640869	-0.0256348	4.39097	-0.624951	60.0868	1.05152	7.38344	-2.99247	0.00294189	0.00126953	2.99247	
3.34431	-0.53125	60.2038	4.98932	0.0283813	0.00183105	0.00915527	4.39045	-0.626286	60.0868	1.05152	7.38343	-2.99297	0.00285645	-0.00057373	2.99297	
3.51804	-1	60.2251	4.9881	0.0256348	0.00213623	0.00366211	4.38939	-0.627638	60.087	1.05152	7.3834	-2.994	0.00284424	0.00129395	2.994	
3.69177	6	60.14	4.9942	0.0247192	0.00427246	-0.00610352	4.38783	-0.628014	60.0872	1.05153	7.38335	-2.99552	0.00302734	0.000708008	2.99552	
2.56252	-1.78125	59.9593	4.99725	0.0271606	0.00396729	0.0430298	4.38568	-0.626557	60.0874	1.05153	7.38331	-2.99762	0.00302734	0.00394287	2.99762	
3.08372	-1.28125	59.651	4.99237	0.0259399	0.00396729	0.0247192	4.38274	-0.624583	60.0875	1.05153	7.38328	-3.00055	0.00307617	0.00435791	3.00055	
4.99475	-0.03125	57.1845	4.98352	0.0244141	0.00427246	-0.00213623	4.3793	-0.622969	60.0869	1.05152	7.3834	-3.00409	0.00308838	0.00439453	3.00409	
4.99475	-0.15625	60.3314	4.98413	0.0241089	0.0112915	-0.0186157	4.37608	-0.621257	60.0855	1.0515	7.38372	-3.00764	0.00336914	0.00487061	3.00764	
2.90999	-0.375	60.3101	4.98444	0.0265503	0.00457764	0.0100708	4.37302	-0.619331	60.0838	1.05147	7.38411	-3.01108	0.00333252	0.00616455	3.01108	
4.99475	0.15625	60.2463	4.98657	0.0268555	0.00396729	0.0115967	4.36981	-0.617205	60.0823	1.05144	7.38445	-3.01464	0.00330811	0.00651855	3.01464	
4.2564	2.34375	60.3208	4.98383	0.0250244	0.00274658	-0.000305176	4.36667	-0.614415	60.081	1.05142	7.38475	-3.01809	0.0032959	0.00517578	3.01809	
4.60386	-0.71875	60.2995	4.98688	0.0250244	0.00152588	-0.0378418	4.36373	-0.610702	60.0798	1.0514	7.38502	-3.02129	0.00334473	0.00396729	3.02129	
4.77759	-0.46875	60.0443	4.98322	0.0216675	0.00213623	0.0744629	4.36102	-0.606672	60.0788	1.05138	7.38525	-3.02423	0.00324707	0.00686035	3.02423	
4.82102	-0.34375	57.9287	4.9826	0.0271606	0.00396729	0.0119019	4.35864	-0.602716	60.0775	1.05136	7.38554	-3.0269	0.00324707	0.00720215	3.0269	
5.08162	0.59375	61.469	4.9826	0.0244141	0.00213623	-0.0653076	4.35666	-0.598611	60.0758	1.05133	7.38593	-3.02926	0.00318604	0.00357666	3.02926	
8.68652	-0.1875	60.3527	4.97955	0.0256348	0.00213623	0.0152588	4.35573	-0.594177	60.0743	1.0513	7.38627	-3.03054	0.00313721	0.0036377	3.03054	
3.60491	-0.65625	59.7786	4.98505	0.0241089	0.00427246	0.0628662	4.35616	-0.589597	60.0731	1.05128	7.38654	-3.03037	0.0032959	0.00853271	3.03037	
3.43118	-3.21875	59.9274	4.98444	0.027771	0.00274658	-0.100403	4.35688	-0.585542	60.0718	1.05126	7.38681	-3.02994	0.00324707	0.00289307	3.02994	
3.56147	-0.84375	59.9912	4.9826	0.0265503	0.00366211	-0.0357056	4.35704	-0.582498	60.0706	1.05123	7.3871	-3.03006	0.003479	0.00140381	3.03006	
4.60386	-0.4375	60.3101	4.97986	0.0234985	0.00213623	0.00244141	4.35684	-0.580027	60.0693	1.05121	7.38738	-3.03054	0.00345459	0.00144043	3.03054	
4.08267	-0.84375	61.2563	4.98199	0.0241089	0.00335693	0.0216675	4.35657	-0.577681	60.0684	1.0512	7.3876	-3.03104	0.00350342	0.00247803	3.03104	
4.29983	-0.84375	60.0337	4.97467	0.0271606	0.000305176	-0.0369263	4.35624	-0.575518	60.0678	1.05119	7.38772	-3.03148	0.00344238	0.00101318	3.03148	
5.12505	-0.71875	60.0443	4.97955	0.0247192	0.00274658	-0.043335	4.35599	-0.573578	60.0675	1.05118	7.3878	-3.03181	0.00344238	-0.000891113	3.03181	
3.95237	-0.71875	59.9593	4.98047	0.0262451	0.00396729	-0.00762939	4.35591	-0.571815	60.0671	1.05118	7.38787	-3.03196	0.00352783	-0.00294189	3.03196	
2.86655	-5.46875	59.7573	4.98077	0.0247192	0.00213623	0.00976563	4.3556	-0.570942	60.0667	1.05117	7.38797	-3.03237	0.0034668	-0.00317383	3.03237	
3.73521	-0.96875	59.9061	4.97742	0.0265503	0.00457764	0.0357056	4.35468	-0.571704	60.0662	1.05116	7.3881	-3.03341	0.00339355	-0.000720215	3.03341	
5.25535	0.53125	60.5015	4.96979	0.0256348	0.00396729	-0.0500488	4.35351	-0.573151	60.0656	1.05115	7.38822	-3.03471	0.003479	-0.00308838	3.03471	
5.16848	0.375	62.6809	4.9707	0.0234985	0.00244141	0.0201416	4.35269	-0.574119	60.0656	1.05115	7.38823	-3.03554	0.00349121	-0.0024292	3.03554	
4.95132	0	60.1613	4.9707	0.0222778	0.00152588	-0.0668335	4.35238	-0.574498	60.0665	1.05116	7.38803	-3.03565	0.00338135	-0.0048584	3.03565	
3.8655	-0.84375	60.055	4.97345	0.0289917	0.00213623	-0.0326538	4.35232	-0.57458	60.0677	1.05119	7.38774	-3.03542	0.00330811	-0.00788574	3.03542	
-2.51909	-0.25	60.14	4.96216	0.0262451	0.00305176	-0.0280762	4.35114	-0.574603	60.069	1.05121	7.38746	-3.03632	0.00327148	-0.00999756	3.03632	
4.69072	-1.53125	59.9699	4.97467	0.0231934	0.00488281	0.00213623	4.34785	-0.574715	60.0702	1.05123	7.38719	-3.03934	0.0032959	-0.00982666	3.03934	
4.34326	-0.6875	60.0762	4.97894	0.0250244	0.00366211	-0.0308228	4.34371	-0.575087	60.0713	1.05125	7.38693	-3.04321	0.00299072	-0.0103149	3.04321	
4.77759	-0.375	60.3527	4.97223	0.0250244	0.00396729	0.0320435	4.33984	-0.575598	60.0725	1.05127	7.38667	-3.04683	0.00296631	-0.00943604	3.04683	
5.64624	0.53125	61.5859	4.96796	0.0259399	0.00213623	-0.0143433	4.33644	-0.575875	60.0739	1.05129	7.38635	-3.04991	0.00289307	-0.0104736	3.04991	
4.95132	0.09375	60.257	4.9707	0.0234985	0.00457764	-0.0570679	4.33373	-0.575663	60.0758	1.05133	7.38591	-3.05218	0.00296631	-0.0127441	3.05218	
-0.217163	-1.34375	59.736	4.97772	0.0262451	0.00396729	0.0143433	4.3308	-0.575199	60.0779	1.05136	7.38544	-3.05464	0.00306396	-0.0106567	3.05464	
-7.68757	-0.78125	59.9806	4.98077	0.0259399	0.00366211	-0.0131226	4.3248	-0.574917	60.0798	1.0514	7.38501	-3.06021	0.003125	-0.0141602	3.06021	
3.43118	1.40625	59.9593	4.97833	0.0262451	0.00518799	0.0747681	4.31444	-0.574521	60.0816	1.05143	7.38461	-3.07018	0.00317383	-0.0116455	3.07018	
3.47461	-0.84375	59.9487	4.97772	0.0244141	0.00274658	0.0427246	4.30217	-0.573599	60.0832	1.05146	7.38425	-3.08208	0.00319824	-0.00732422	3.08208	
3.38774	-0.71875	59.7148	4.98383	0.0228882	0.00152588	0.0222778	4.28979	-0.572507	60.0846	1.05148	7.38392	-3.09413	0.00317383	-0.00704346	3.09413	
3.77864	-0.28125	58.5985	4.98199	0.0256348	0.00366211	-0.0460815	4.27737	-0.571496	60.0856	1.0515	7.38369	-3.10633	0.00314941	-0.0114014	3.10633	
3.64834	-0.625	59.9912	4.9826	0.0265503	0.00732422	0.0299072	4.26498	-0.570462	60.0861	1.05151	7.38359	-3.11861	0.00333252	-0.00618896	3.11861	
2.17163	-1.21875	59.7041	4.98047	0.0228882	0.00274658	0.0332642	4.25244	-0.569536	60.0862	1.05151	7.38356	-3.13113	0.0032959	-0.00343018	3.13113	
7.51384	-1.3125	59.6297	4.98413	0.0241089	0.00579834	0.0247192	4.2401	-0.568968	60.0861	1.05151	7.38358	-3.14348	0.00344238	-0.00253906	3.14348	
3.21401	1.09375	59.9061	4.98657	0.0265503	0.00457764	-0.0109863	4.22873	-0.568493	60.0858	1.0515	7.38366	-3.15493	0.00349121	-0.00384521	3.15493	
4.77759	0.0625	60.2995	4.98169	0.0238037	0.00274658	-0.032959	4.21803	-0.567537	60.0854	1.05149	7.38375	-3.16571	0.00358887	-0.00368652	3.16571	
4.82102	0.03125	60.2463	4.97833	0.0222778	0.00396729	-0.0158691	4.20782	-0.566067	60.0851	1.05149	7.38382	-3.176	0.0036377	-0.00258789	3.176	
4.38669	-0.375	59.332	4.98505	0.0253296	0.00457764	0.00274658	4.19828	-0.564337	60.0847	1.05148	7.3839	-3.18562	0.00366211	-0.00217285	3.18562	
3.90894	-0.78125	60.1613	4.98169	0.0259399	0.00152588	-0.032959	4.18917	-0.56255	60.0842	1.05147	7.38402	-3.19484	0.0036377	-0.00388184	3.19484	
5.16848	-0.78125	60.0337	4.98566	0.0241089	0.00335693	0.0131226	4.18048	-0.560897	60.0836	1.05146	7.38415	-3.20367	0.00358887	-0.00478516	3.20367	
15.0711	-0.28125	60.0869	4.99237	0.0253296	0.00457764	0.0256348	4.17405	-0.559362	60.083	1.05145	7.38429	-3.21024	0.00361328	-0.00175781	3.21024	
3.95237	-2.15625	60.2251	4.98932	0.0259399	0.00183105	-0.0744629	4.17135	-0.558076	60.0825	1.05144	7.38441	-3.21307	0.00358887	-0.00554199	3.21307	
4.43013	-1.5625	60.2463	4.98901	0.0244141	0.00366211	-0.0265503	4.1704	-0.557444	60.082	1.05143	7.38452	-3.21412	0.00367432	-0.00393066	3.21412	
5.47251	0.34375	60.4696	4.98657	0.0231934	0.00366211	-0.0460815	4.16973	-0.557254	60.0817	1.05143	7.38459	-3.21486	0.00373535	-0.00446777	3.21486	
4.2564	-0.34375	60.2251	4.9884	0.0241089	0.00213623	0.0210571	4.16955	-0.556913	60.0815	1.05143	7.38462	-3.21508	0.00369873	-0.00250244	3.21508	
2.64939	-1.625	59.6935	4.99573	0.0247192	0.0012207	0.0476074	4.16936	-0.556545	60.0815	1.05143	7.38464	-3.21528	0.00355225	-0.000683594	3.21528	
2.69282	-1.09375	60.055	4.99817	0.0271606	0.00213623	0.012207	4.16849	-0.556571	60.0813	1.05142	7.38468	-3.21619	0.00349121	0.0010376	3.21619	
1.82417	-0.96875	59.9912	4.99481	0.0247192	0.00335693	0.038147	4.1666	-0.556993	60.081	1.05142	7.38474	-3.21814	0.0034668	0.00128174	3.21814	
3.56147	-2.5	59.9912	4.99481	0.0234985	0.00427246	0.0491333	4.16372	-0.557912	60.0807	1.05141	7.38481	-3.22109	0.00355225	0.0038208	3.22109	
2.77969	-5.90625	60.0975	4.99329	0.0247192	0.00213623	-0.0546265	4.16018	-0.560296	60.0804	1.05141	7.38488	-3.2247	0.00345459	0.00391846	3.2247	
3.8655	-0.875	60.0975	4.99664	0.0253296	0.00366211	0.0259399	4.1562	-0.564605	60.0801	1.0514	7.38496	-3.22876	0.00344238	0.00438232	3.22876	
3.47461	-0.96875	60.8204	4.99237	0.0259399	0.00396729	-0.0247192	4.15195	-0.569751	60.0799	1.0514	7.385	-3.23305	0.00345459	0.00391846	3.23305	
3.08372	-1.375	60.0762	4.99664	0.0256348	0.00274658	0.0289917	4.14742	-0.575014	60.0799	1.0514	7.38499	-3.23757	0.00335693	0.0020874	3.23757	
1.95447	-2.09375	59.736	4.99939	0.0289917	0.00701904	0.0192261	4.14228	-0.580637	60.08	1.0514	7.38496	-3.24269	0.00352783	0.00114746	3.24269	
-1.04238	-1.09375	59.8317	4.99237	0.0259399	0.00335693	-0.00640869	4.13567	-0.586737	60.08	1.0514	7.38497	-3.24931	0.00360107	0	3.24931	
5.12505	-0.53125	60.1826	4.98871	0.0253296	0.00396729	-0.0405884	4.12749	-0.593006	60.0798	1.0514	7.38501	-3.25751	0.00361328	0.000219727	3.25751	
4.77759	0.71875	60.4802	4.98749	0.0222778	0.00305176	-0.0308228	4.11922	-0.598912	60.0797	1.0514	7.38503	-3.26581	0.00344238	-0.00220947	3.26581	
4.47356	-0.15625	60.2251	4.99054	0.027771	0.00396729	-0.0256348	4.11164	-0.604123	60.0798	1.0514	7.38501	-3.27337	0.00349121	-0.00456543	3.27337	
3.90894	-0.625	60.7567	4.99237	0.0280762	0.00396729	0.0204468	4.10452	-0.608811	60.0801	1.0514	7.38495	-3.28043	0.00341797	-0.00473633	3.28043	
4.21296	-0.8125	60.2463	4.99207	0.0247192	0.00213623	0.0283813	4.09766	-0.613301	60.0806	1.05141	7.38483	-3.28717	0.00332031	-0.00316162	3.28717	
3.77864	-0.8125	60.2463	4.99298	0.0234985	0.00610352	0.0402832	4.09099	-0.61773	60.0813	1.05142	7.38467	-3.29368	0.00345459	-0.000231934	3.29368	
-0.781787	-0.96875	60.0869	4.9881	0.0253296	0.00457764	-0.00457764	4.08372	-0.622149	60.0821	1.05144	7.3845	-3.30078	0.003479	0.000219727	3.30078	
4.43013	0.03125	60.3101	4.98993	0.0256348	0.00213623	0.0595093	4.07521	-0.626449	60.0829	1.05145	7.38432	-3.30912	0.00338135	0.00249023	3.30912	
5.81997	6.6875	60.7567	4.98688	0.0216675	0.00274658	0.0338745	4.06662	-0.629313	60.0838	1.05147	7.38411	-3.3175	0.00343018	0.00516357	3.3175	
4.77759	-0.3125	60.3314	4.98901	0.0241089	0.00366211	-0.0265503	4.05903	-0.629655	60.085	1.05149	7.38385	-3.32481	0.00344238	0.00357666	3.32481	
3.25745	-1.5625	59.4384	4.9939	0.0259399	0.00427246	0.000305176	4.05209	-0.628897	60.0862	1.05151	7.38357	-3.33148	0.00343018	0.00256348	3.33148	
3.21401	-1.28125	59.9061	4.99146	0.0265503	0.00518799	0.00640869	4.04512	-0.628507	60.0872	1.05153	7.38335	-3.33822	0.00356445	0.00579834	3.33822	
3.9958	-1.28125	59.9699	4.9939	0.0238037	0	0.0491333	4.03801	-0.628579	60.088	1.05154	7.38317	-3.34516	0.00341797	0.00882568	3.34516	
1.34641	-1.125	60.2889	4.98749	0.0241089	0.00396729	0.0088501	4.03059	-0.629029	60.0887	1.05155	7.38301	-3.35242	0.00343018	0.0110229	3.35242	
4.2564	-0.21875	60.0975	4.98993	0.0253296	0.00305176	-0.000915527	4.02263	-0.629655	60.0894	1.05156	7.38284	-3.36021	0.0034668	0.010144	3.36021	
3.9958	4.65625	60.1188	4.99176	0.0265503	0.00396729	0.0308228	4.0146	-0.629388	60.0902	1.05158	7.38267	-3.36808	0.00357666	0.00947266	3.36808	
4.1261	-0.96875	60.0125	4.98657	0.0250244	0.00274658	0.010376	4.00689	-0.62748	60.0909	1.05159	7.38251	-3.37562	0.00360107	0.00939941	3.37562	
3.47461	-1.1875	59.6722	4.98688	0.0250244	0.00396729	0.0363159	3.99941	-0.625011	60.0915	1.0516	7.38237	-3.38296	0.00362549	0.00932617	3.38296	
2.86655	-1.28125	62.0005	4.99237	0.0271606	0.00457764	0.0332642	3.99187	-0.622958	60.0922	1.05161	7.3822	-3.39033	0.0036377	0.00869141	3.39033	
3.43118	-1.4375	59.9593	4.98749	0.0271606	-0.00213623	0.00213623	3.98408	-0.621396	60.0935	1.05164	7.38193	-3.39785	0.0034668	0.0109619	3.39785	
9.12085	0.46875	60.3633	4.98169	0.0247192	0.00152588	-0.00915527	3.97701	-0.620074	60.0949	1.05166	7.38159	-3.40458	0.00338135	0.00955811	3.40458	
5.21191	-0.21875	60.3314	4.98749	0.0253296	0.00946045	-0.0579834	3.97189	-0.618525	60.0965	1.05169	7.38125	-3.40936	0.00360107	0.00822754	3.40936	
5.12505	-1	60.1613	4.97894	0.0265503	0.00488281	-0.0405884	3.96831	-0.616796	60.0981	1.05172	7.38089	-3.41257	0.00368652	0.00544434	3.41257	
4.69072	-0.09375	60.2038	4.97955	0.0247192	0.00366211	-0.0134277	3.96552	-0.615104	60.0997	1.05174	7.38052	-3.415	0.00355225	0.00413818	3.415	
4.64729	-0.21875	60.3527	4.98199	0.0259399	0.00366211	0.0280762	3.96334	-0.613308	60.1013	1.05177	7.38015	-3.41681	0.00356445	0.00551758	3.41681	
4.2564	-0.09375	60.2357	4.98169	0.0253296	0.00152588	-0.00854492	3.96161	-0.61129	60.103	1.0518	7.37977	-3.41816	0.0034668	0.00679932	3.41816	
4.82102	0	60.1081	4.98383	0.0234985	0.00335693	-0.0131226	3.96027	-0.609027	60.1047	1.05183	7.37938	-3.41911	0.003479	0.00750732	3.41911	
7.12295	-0.03125	60.2463	4.97711	0.0265503	0.00305176	-0.0137329	3.95978	-0.606484	60.1064	1.05186	7.379	-3.41922	0.00344238	0.0079834	3.41922	
6.2543	0.625	60.3739	4.96979	0.022583	0.00274658	-0.00579834	3.96077	-0.603566	60.1081	1.05189	7.37861	-3.41783	0.00339355	0.00693359	3.41783	
4.60386	-2.28125	60.2251	4.96979	0.0234985	0.00305176	-0.00549316	3.96304	-0.600541	60.1099	1.05192	7.3782	-3.41517	0.00343018	0.00557861	3.41517	
3.43118	-1.375	59.6829	4.98138	0.0265503	0.00366211	0.00701904	3.96569	-0.598072	60.1117	1.05195	7.37781	-3.41212	0.00333252	0.00424805	3.41212	
3.38774	-1.46875	59.9912	4.98169	0.0271606	0.000610352	0.0119019	3.9681	-0.596328	60.1132	1.05198	7.37746	-3.40936	0.00317383	0.00490723	3.40936	
3.73521	-0.8125	58.5241	4.97711	0.0231934	0.00213623	-0.0161743	3.97012	-0.595069	60.1143	1.052	7.3772	-3.40708	0.00317383	0.00187988	3.40708	
3.73521	-0.625	59.8105	4.97772	0.0231934	0.00640869	-0.00823975	3.97188	-0.594062	60.1149	1.05201	7.37708	-3.40521	0.00332031	0.000195313	3.40521	
2.51909	-0.875	59.9487	4.97711	0.0256348	0.00213623	-0.0521851	3.97323	-0.593177	60.115	1.05201	7.37705	-3.40381	0.00325928	-0.000830078	3.40381	
4.60386	-0.34375	60.0125	4.97437	0.0241089	0.00244141	-0.0454712	3.97415	-0.592376	60.1151	1.05201	7.37704	-3.40289	0.00318604	-0.00266113	3.40289	
4.21296	-2.09375	59.8849	4.97711	0.0247192	0.00366211	-0.00976563	3.97505	-0.591804	60.115	1.05201	7.37706	-3.40201	0.003125	-0.00330811	3.40201	
3.73521	-1.21875	59.9274	4.97711	0.0253296	-0.00366211	0.0210571	3.97604	-0.591776	60.1148	1.05201	7.3771	-3.40105	0.00297852	-0.00443115	3.40105	
2.60596	-1.46875	59.8105	4.97711	0.0256348	0.00366211	0.0344849	3.97676	-0.592312	60.1145	1.052	7.37717	-3.40041	0.00296631	-0.00340576	3.40041	
3.69177	-0.96875	57.7905	4.97955	0.0265503	0.00274658	0.0683594	3.97693	-0.593258	60.1137	1.05199	7.37735	-3.40041	0.0029541	-0.000634766	3.40041	
5.47251	0.34375	60.0443	4.97223	0.0241089	0.00640869	0.00366211	3.97704	-0.594277	60.1122	1.05196	7.37769	-3.40065	0.00305176	-0.00172119	3.40065	
3.43118	0.28125	60.2251	4.96918	0.0259399	0.00213623	-0.0564575	3.97747	-0.594892	60.1103	1.05193	7.37811	-3.40064	0.00302734	-0.00439453	3.40064	
12.0743	-0.03125	60.2251	4.9707	0.0265503	0.00427246	0.027771	3.97921	-0.594981	60.1086	1.0519	7.3785	-3.39929	0.00303955	-0.00473633	3.39929	
4.43013	-0.375	60.0975	4.99329	0.0234985	0.00274658	-0.0195313	3.98339	-0.594721	60.107	1.05187	7.37887	-3.39548	0.00296631	-0.00684814	3.39548	
4.16953	0	59.9061	4.97467	0.0247192	0.00152588	-0.0228882	3.98884	-0.594223	60.1054	1.05184	7.37923	-3.39039	0.00311279	-0.00784912	3.39039	
4.21296	-0.46875	59.9061	4.97711	0.0265503	0.00518799	-0.0271606	3.99426	-0.593504	60.1038	1.05182	7.3796	-3.38534	0.00325928	-0.00856934	3.38534	
4.08267	0.40625	60.1613	4.97681	0.0231934	0.00396729	0.0344849	3.9996	-0.592525	60.1021	1.05179	7.37997	-3.38037	0.00303955	-0.00487061	3.38037	
4.56042	-0.1875	60.1613	4.97681	0.020752	0.00213623	0.0131226	4.0049	-0.591188	60.1005	1.05176	7.38033	-3.37543	0.00292969	-0.00272217	3.37543	
6.03713	0.71875	60.3101	4.97223	0.0241089	0.00457764	-0.00274658	4.01051	-0.589414	60.099	1.05173	7.38067	-3.37015	0.00296631	-0.00229492	3.37015	
14.159	0.03125	60.1294	4.97101	0.027771	0.00274658	-0.0402832	4.01822	-0.587137	60.0977	1.05171	7.38097	-3.36275	0.00292969	-0.0050293	3.36275	
2.86655	-0.09375	59.7998	4.98383	0.0259399	0.00335693	-0.0131226	4.02894	-0.584469	60.0964	1.05169	7.38127	-3.35232	0.00300293	-0.0052124	3.35232	
2.69282	-1.125	59.7148	4.9826	0.0234985	0.00305176	0.0125122	4.04029	-0.581731	60.095	1.05166	7.38158	-3.34129	0.00299072	-0.00418701	3.34129	
3.04028	-1.125	59.9699	4.98596	0.0259399	0.00274658	0.00396729	4.05049	-0.579265	60.0934	1.05164	7.38193	-3.33144	0.00297852	-0.003479	3.33144	
3.25745	-0.34375	60.948	4.9826	0.0244141	0.00518799	-0.00762939	4.05968	-0.577102	60.092	1.05161	7.38226	-3.32258	0.00307617	-0.00355225	3.32258	
2.99685	-0.59375	59.9274	4.98199	0.0259399	0.00152588	-0.0296021	4.06798	-0.575031	60.0908	1.05159	7.38252	-3.31455	0.00301514	-0.0045166	3.31455	
4.73416	-0.71875	60.0762	4.97772	0.0247192	0.00152588	0.000305176	4.07563	-0.573024	60.0898	1.05157	7.38276	-3.30713	0.00292969	-0.00478516	3.30713	
0.304028	-0.65625	59.938	4.98505	0.0234985	0.00396729	0.0161743	4.08248	-0.571148	60.0887	1.05155	7.38301	-3.30053	0.00306396	-0.00461426	3.30053	
2.77969	-1.46875	59.6722	4.98413	0.0265503	0.00427246	0.0271606	4.0878	-0.569526	60.0875	1.05153	7.38327	-3.29546	0.00314941	-0.00288086	3.29546	
2.56252	-1.53125	59.6722	4.98718	0.0274658	0.00366211	-0.0131226	4.09171	-0.568403	60.0862	1.05151	7.38356	-3.29185	0.00303955	-0.00307617	3.29185	
3.47461	-1	59.9061	4.98688	0.0247192	0.00457764	0.00701904	4.09472	-0.567824	60.0847	1.05148	7.3839	-3.28919	0.00313721	-0.000708008	3.28919	
4.69072	-0.125	60.9799	4.98016	0.0241089	0.00335693	0.00396729	4.09728	-0.567481	60.0833	1.05146	7.38423	-3.28695	0.00317383	0.00126953	3.28695	
4.77759	-1.96875	60.0975	4.97101	0.0247192	0.00274658	-0.0323486	4.09994	-0.567297	60.0822	1.05144	7.38448	-3.28454	0.00313721	0.000366211	3.28454	
4.95132	-0.59375	60.2995	4.98566	0.0280762	-0.0012207	-0.0216675	4.10294	-0.567489	60.0813	1.05142	7.38469	-3.28174	0.00323486	-0.00134277	3.28174	
-5.25535	-0.625	60.1613	4.97406	0.0238037	0.00244141	0.00488281	4.10476	-0.567909	60.0805	1.05141	7.38486	-3.28011	0.00318604	-0.00252686	3.28011	
3.90894	-1.1875	60.0869	4.99146	0.0241089	0.00274658	-0.00579834	4.10371	-0.568433	60.0798	1.0514	7.38502	-3.28132	0.00318604	-0.00549316	3.28132	
3.69177	-0.71875	59.9912	4.9881	0.0271606	0.00488281	0.00762939	4.10111	-0.569162	60.0791	1.05138	7.38518	-3.28406	0.003125	-0.00533447	3.28406	
4.47356	-0.53125	60.1719	4.98657	0.0244141	0.00366211	0.0253296	4.09851	-0.570002	60.0784	1.05137	7.38533	-3.28681	0.00318604	-0.00206299	3.28681	
4.43013	-0.28125	60.0869	4.98718	0.0234985	0.00366211	-0.0421143	4.09611	-0.57078	60.0778	1.05136	7.38547	-3.28936	0.00316162	-0.0048584	3.28936	
5.16848	-0.125	60.4377	4.98474	0.0247192	0.00518799	-0.0473022	4.09412	-0.571364	60.0773	1.05135	7.38559	-3.29147	0.00325928	-0.00596924	3.29147	
4.2564	-0.53125	60.3314	4.98566	0.0268555	0.0100708	0.0363159	4.09261	-0.571739	60.0769	1.05135	7.38567	-3.29307	0.00360107	-0.00360107	3.29307	
5.29878	-1.59375	59.8849	4.99573	0.0259399	0.00274658	0.0186157	4.09155	-0.572178	60.0766	1.05134	7.38573	-3.29417	0.00350342	-0.00177002	3.29417	
2.51909	-1.46875	59.8849	4.99969	0.0247192	0.00274658	0.00579834	4.09069	-0.57305	60.0764	1.05134	7.38579	-3.2951	0.00345459	-0.00291748	3.2951	
3.34431	5.375	59.9593	4.99817	0.0253296	0.00335693	-0.0198364	4.08944	-0.573406	60.076	1.05133	7.38588	-3.29643	0.00350342	-0.00423584	3.29643	
3.30088	-1.125	60.0337	4.99237	0.0265503	0.00274658	0.0161743	4.08764	-0.572128	60.0755	1.05132	7.38598	-3.29833	0.00343018	-0.003479	3.29833	
3.64834	-0.71875	59.3746	4.9939	0.0241089	0.00305176	0.0601196	4.08548	-0.570167	60.075	1.05131	7.3861	-3.30063	0.00344238	0.000537109	3.30063	
3.51804	-0.96875	57.1313	4.99664	0.0247192	0.00427246	0.00610352	4.08304	-0.568467	60.0738	1.05129	7.38638	-3.30334	0.003479	0.00130615	3.30334	
3.38774	-0.78125	60.0869	4.99176	0.0265503	0.00640869	-0.027771	4.08034	-0.567008	60.0715	1.05125	7.38688	-3.30654	0.00361328	-0.000305176	3.30654	
7.12295	-1.25	60.0443	4.99481	0.0259399	0.00366211	-0.0323486	4.07791	-0.565835	60.069	1.05121	7.38746	-3.30956	0.0036499	-0.00175781	3.30956	
2.04133	-1.40625	59.7786	4.99878	0.0265503	0.00518799	0.022583	4.07608	-0.565078	60.0664	1.05116	7.38804	-3.31196	0.0036499	-0.000549316	3.31196	
2.99685	-1.5	59.8742	4.98108	0.0247192	0.00274658	0.050354	4.07398	-0.564861	60.0639	1.05112	7.38862	-3.31463	0.00369873	0.00264893	3.31463	
4.82102	-0.125	60.3952	4.98749	0.0256348	0.00274658	-0.0402832	4.07143	-0.565003	60.0613	1.05107	7.38919	-3.31776	0.00374756	0.00102539	3.31776	
5.16848	0.125	60.1613	4.99054	0.0250244	0.00457764	-0.0216675	4.0692	-0.565042	60.059	1.05103	7.38973	-3.32052	0.00377197	-0.000488281	3.32052	
4.21296	-0.375	62.4152	4.99023	0.0231934	0.00213623	0.00518799	4.06754	-0.564767	60.0571	1.051	7.39014	-3.3226	0.00368652	-0.00136719	3.3226	
4.1261	-0.65625	60.2357	4.99176	0.0244141	-0.0012207	-0.0363159	4.06615	-0.564351	60.0561	1.05098	7.39036	-3.32421	0.00349121	-0.00229492	3.32421	
7.81787	-1.03125	60.14	4.9942	0.0271606	0.00396729	0.0421143	4.06544	-0.564021	60.0556	1.05097	7.39048	-3.32504	0.0034668	-0.000891113	3.32504	
3.90894	-0.375	60.0975	4.99329	0.0265503	0.00335693	-0.0570679	4.0659	-0.563832	60.0552	1.05097	7.39058	-3.32468	0.0034668	-0.00333252	3.32468	
4.08267	-6.625	60.055	4.98993	0.0241089	0.00457764	0.0247192	4.06688	-0.564604	60.0548	1.05096	7.39067	-3.32379	0.00354004	-0.0010498	3.32379	
4.95132	-0.1875	60.4802	4.99176	0.0241089	0.00427246	0.0253296	4.06794	-0.567141	60.0545	1.05095	7.39074	-3.3228	0.00375977	0.000830078	3.3228	
5.34221	0.34375	60.6929	4.98566	0.0265503	0.00518799	-0.057373	4.06944	-0.570271	60.0544	1.05095	7.39075	-3.32131	0.00386963	-0.00166016	3.32131	
4.86445	-0.4375	62.8511	4.98505	0.0244141	0.00213623	-0.0253296	4.07154	-0.572928	60.055	1.05096	7.39061	-3.31907	0.00384521	-0.00244141	3.31907	
3.47461	-1.8125	59.7573	4.9942	0.0265503	-0.00152588	-0.0326538	4.07392	-0.5755	60.0566	1.05099	7.39026	-3.31634	0.00358887	-0.00405273	3.31634	
4.56042	-1.625	59.8849	4.99603	0.0256348	0.0012207	0.0289917	4.07623	-0.578508	60.0584	1.05102	7.38986	-3.31363	0.00349121	-0.00390625	3.31363	
3.21401	-1.28125	60.0975	4.98413	0.0247192	0.00152588	0.0146484	4.07838	-0.582036	60.06	1.05105	7.38949	-3.31111	0.00340576	-0.00163574	3.31111	
3.73521	-5.0625	60.055	4.99237	0.0253296	0.00305176	-0.0585938	4.08021	-0.586514	60.0616	1.05108	7.38914	-3.30892	0.00332031	-0.0020874	3.30892	
2.95342	-0.71875	60.0443	4.98688	0.020752	0.00213623	-0.0387573	4.08156	-0.592353	60.0631	1.0511	7.3888	-3.30723	0.00300293	-0.00509033	3.30723	
3.90894	-0.84375	60.1188	4.98932	0.0244141	0.00213623	-0.00762939	4.08244	-0.59876	60.0645	1.05113	7.38847	-3.30603	0.00297852	-0.00614014	3.30603	
4.08267	-0.78125	61.958	4.98627	0.0265503	0.00518799	0.0222778	4.08305	-0.605067	60.0662	1.05116	7.38808	-3.30503	0.00307617	-0.00548096	3.30503	
3.82207	-1.5	59.9274	4.98749	0.0265503	-0.000305176	0.0115967	4.08357	-0.611383	60.0685	1.0512	7.38758	-3.304	0.00292969	-0.00422363	3.304	
0.694922	-1.9375	59.7998	4.99146	0.0250244	0.00213623	0.0323486	4.08347	-0.617987	60.0708	1.05124	7.38704	-3.30357	0.00290527	-0.00357666	3.30357	
-10.0764	-1.03125	59.9061	4.97925	0.0241089	0.00427246	-0.0222778	4.08008	-0.624971	60.073	1.05128	7.38656	-3.30648	0.0029541	-0.00687256	3.30648	
5.08162	-0.71875	60.2463	4.97894	0.0259399	0.00488281	0.00457764	4.07205	-0.632055	60.075	1.05131	7.38611	-3.31406	0.00297852	-0.00693359	3.31406	
4.95132	-0.3125	60.3633	4.97681	0.0253296	0.00274658	0.0326538	4.06256	-0.63893	60.077	1.05135	7.38566	-3.3231	0.00283203	-0.0045166	3.3231	
4.60386	0.15625	60.1613	4.97681	0.0247192	0.00274658	0.022583	4.05391	-0.645354	60.079	1.05138	7.38519	-3.33128	0.00279541	-0.00231934	3.33128	
4.56042	-0.625	59.8849	4.98169	0.0256348	0.00518799	0.0540161	4.04595	-0.651249	60.081	1.05142	7.38473	-3.33878	0.00279541	-0.00106201	3.33878	
4.64729	-0.6875	60.0125	4.97833	0.0256348	0.00366211	0.0088501	4.03862	-0.656811	60.0829	1.05145	7.3843	-3.34569	0.00283203	-0.00272217	3.34569	
1.65044	-0.8125	59.9912	4.98077	0.0271606	0.00396729	0.0354004	4.03143	-0.662207	60.0847	1.05148	7.3839	-3.35247	0.00288086	0.000305176	3.35247	
0.347461	0.0625	60.1294	4.98047	0.0234985	0.00366211	0.0369263	4.02329	-0.667353	60.0864	1.05151	7.38353	-3.36024	0.00284424	0.00264893	3.36024	
4.43013	2	60.2995	4.97223	0.0228882	0.0012207	-0.00305176	4.01398	-0.671702	60.088	1.05154	7.38316	-3.36918	0.00280762	0.00231934	3.36918	
5.47251	0.71875	60.2995	4.9707	0.0259399	0.00274658	-0.0106812	4.00478	-0.67474	60.0897	1.05157	7.38277	-3.37799	0.00296631	0.00334473	3.37799	
4.86445	-0.125	60.0125	4.97284	0.0280762	0.00366211	-0.0247192	3.99656	-0.676739	60.0914	1.0516	7.38239	-3.38583	0.0029541	0.000671387	3.38583	
3.25745	-1.1875	58.6942	4.97559	0.0253296	0.00335693	0.0012207	3.98901	-0.67836	60.0929	1.05163	7.38206	-3.39305	0.0029541	0.00300293	3.39305	
3.21401	-1	59.8211	4.97925	0.0247192	0.00518799	-0.00579834	3.98151	-0.680046	60.0938	1.05164	7.38185	-3.40034	0.00297852	0.00178223	3.40034	
4.2564	-0.59375	59.8211	4.97681	0.0262451	0.00366211	-0.00610352	3.97397	-0.681838	60.0943	1.05165	7.38173	-3.40776	0.0029541	0.000524902	3.40776	
11.3359	-0.5625	59.8849	4.98077	0.0259399	0.00213623	0.0112915	3.9678	-0.683571	60.0947	1.05166	7.38165	-3.41385	0.00283203	0.00327148	3.41385	
4.16953	1.28125	59.8636	4.97711	0.0253296	0.00183105	-0.020752	3.96421	-0.684887	60.0949	1.05166	7.38161	-3.4174	0.00281982	0.00345459	3.4174	
4.16953	-0.71875	59.9699	4.97437	0.0228882	0.00396729	-0.0189209	3.96198	-0.685534	60.0949	1.05166	7.38159	-3.41961	0.00303955	0.00400391	3.41961	
1.52014	-0.53125	60.0975	4.97772	0.0280762	0.00152588	0.0241089	3.95955	-0.685839	60.0949	1.05166	7.38159	-3.42204	0.00305176	0.00380859	3.42204	
3.60491	-1.125	58.9706	4.97772	0.0274658	0.00213623	-0.00335693	3.95643	-0.686158	60.0947	1.05166	7.38164	-3.42521	0.00307617	0.00308838	3.42521	
2.64939	-1.25	59.6085	4.97772	0.0216675	0.00183105	0.00640869	3.95272	-0.686666	60.0941	1.05165	7.38178	-3.42906	0.00302734	0.00568848	3.42906	
4.86445	-0.65625	59.8955	4.97772	0.0234985	0.00366211	-0.00396729	3.94883	-0.687395	60.0932	1.05163	7.38199	-3.43316	0.00308838	0.00708008	3.43316	
16.3307	0.71875	60.1826	4.98474	0.0265503	0.00366211	0.027771	3.94708	-0.687957	60.0921	1.05161	7.38223	-3.43515	0.00314941	0.00849609	3.43515	
5.34221	-1.09375	60.2676	4.97131	0.0238037	0.00274658	-0.0769043	3.94959	-0.688122	60.0911	1.0516	7.38245	-3.43287	0.00305176	0.00452881	3.43287	
4.69072	-1.71875	60.0762	4.97467	0.0253296	0.00518799	0.0421143	3.95447	-0.688348	60.0903	1.05158	7.38265	-3.42817	0.00327148	0.00574951	3.42817	
5.03818	-0.3125	60.1613	4.97528	0.0234985	0.00396729	0.0314331	3.95981	-0.68889	60.0894	1.05157	7.38283	-3.42303	0.00334473	0.00571289	3.42303	
3.90894	-0.3125	60.2782	4.97681	0.0253296	0.00366211	-0.0183105	3.96539	-0.689398	60.0887	1.05155	7.383	-3.41761	0.00332031	0.00587158	3.41761	
3.82207	-0.71875	59.938	4.97864	0.0234985	0.0012207	0.0180054	3.97091	-0.689718	60.088	1.05154	7.38315	-3.41224	0.00317383	0.00640869	3.41224	
4.69072	-0.53125	59.9912	4.97742	0.0222778	0.00854492	-0.0228882	3.97629	-0.689952	60.0874	1.05153	7.3833	-3.40702	0.00340576	0.00418701	3.40702	
7.55728	0.15625	60.055	4.98047	0.0280762	0.00457764	-0.0238037	3.98223	-0.690002	60.0867	1.05152	7.38346	-3.40123	0.003479	0.00233154	3.40123	
5.38564	-1.40625	60.257	4.97223	0.0253296	0.00213623	-0.0619507	3.9894	-0.689874	60.086	1.0515	7.38362	-3.39421	0.00335693	-0.00230713	3.39421	
4.43013	-7.6875	60.0869	4.9765	0.0238037	0.00366211	-0.0405884	3.99738	-0.690928	60.0854	1.05149	7.38375	-3.38637	0.00335693	-0.00428467	3.38637	
2.86655	-1.21875	59.8636	4.98322	0.0256348	0.00335693	-0.00152588	4.00526	-0.694308	60.0848	1.05148	7.38389	-3.37863	0.00333252	-0.00576172	3.37863	
2.86655	-1.28125	60.5653	4.9826	0.0283813	0.00274658	0.0247192	4.01239	-0.698909	60.0842	1.05147	7.38402	-3.37162	0.0032959	-0.00625	3.37162	
3.08372	-1.28125	59.8424	4.98566	0.0271606	0.00579834	0.0552368	4.0186	-0.703701	60.0837	1.05147	7.38412	-3.36552	0.003479	-0.00391846	3.36552	
3.17058	-0.625	59.8742	4.98383	0.0259399	0.00823975	0.0338745	4.02399	-0.708583	60.0833	1.05146	7.38423	-3.36024	0.00369873	-0.00213623	3.36024	
-0.608057	-0.78125	59.9274	4.9765	0.0253296	0.00274658	-0.00976563	4.02807	-0.713368	60.0827	1.05145	7.38437	-3.3563	0.00366211	-0.00153809	3.3563	
3.60491	-0.15625	59.9699	4.9826	0.0256348	0.00427246	-0.000305176	4.03036	-0.717907	60.082	1.05143	7.38452	-3.35416	0.00369873	-0.00159912	3.35416	
3.82207	-0.53125	59.9274	4.9826	0.0265503	0.00518799	0.0857544	4.03169	-0.722094	60.0813	1.05142	7.38469	-3.35299	0.00369873	0.00206299	3.35299	
3.17058	-1.125	59.9061	4.98657	0.0259399	0.00274658	0.0360107	4.03271	-0.72605	60.0805	1.05141	7.38487	-3.35216	0.00366211	0.00374756	3.35216	
1.9979	-1.65625	59.2576	4.99298	0.0244141	0.00152588	-0.0869751	4.03308	-0.730106	60.0795	1.05139	7.38509	-3.35201	0.0036377	-0.000183105	3.35201	
3.51804	-1.21875	59.8636	4.99115	0.0247192	0.00427246	0.0183105	4.03259	-0.734445	60.0782	1.05137	7.38537	-3.35278	0.00373535	0.00137939	3.35278	
4.43013	-0.15625	60.2995	4.98505	0.0250244	0.00732422	0.00549316	4.0317	-0.738836	60.0768	1.05134	7.38568	-3.35398	0.00386963	0.00235596	3.35398	
-0.738354	-0.3125	60.1613	4.98108	0.0253296	0.00366211	-0.0543213	4.03015	-0.742901	60.0756	1.05132	7.38597	-3.35582	0.00395508	-0.00078125	3.35582	
4.34326	0.625	60.2145	4.98566	0.0244141	0.00488281	0.0256348	4.02728	-0.746387	60.0744	1.0513	7.38623	-3.35895	0.00406494	0.000378418	3.35895	
3.73521	5.625	60.0762	4.99023	0.0256348	0.00305176	0.00793457	4.02383	-0.74827	60.0734	1.05128	7.38647	-3.36264	0.00411377	0.000439453	3.36264	
3.8655	-0.40625	60.0975	4.98901	0.0256348	0.00305176	0.0271606	4.02043	-0.747844	60.0724	1.05127	7.38669	-3.36626	0.00408936	0.00168457	3.36626	
3.73521	-0.4375	59.6616	4.9884	0.0231934	0.00549316	-0.00305176	4.01701	-0.746289	60.0714	1.05125	7.38692	-3.36991	0.0041626	0.00045166	3.36991	
4.08267	-0.1875	60.1294	4.98871	0.0256348	0.00610352	-0.0180054	4.01362	-0.744554	60.0703	1.05123	7.38717	-3.37355	0.00429688	0.00280762	3.37355	
4.21296	-0.53125	60.3314	4.98352	0.0256348	0.0012207	-0.0668335	4.01035	-0.742626	60.0692	1.05121	7.3874	-3.37706	0.00413818	-0.00155029	3.37706	
8.2522	0.53125	60.4696	4.9881	0.0241089	0.00396729	0.00701904	4.00793	-0.740416	60.0684	1.0512	7.3876	-3.37967	0.00413818	-0.00252686	3.37967	
4.51699	-0.0625	60.1719	4.98749	0.0241089	0.000610352	-0.0161743	4.00701	-0.73775	60.0677	1.05118	7.38775	-3.38073	0.00401611	-0.00244141	3.38073	
2.38879	-5.15625	59.8849	4.99603	0.0259399	0.00213623	-0.0500488	4.0067	-0.735457	60.0671	1.05118	7.38787	-3.38117	0.00405273	-0.00516357	3.38117	
2.69282	-1.5	59.9487	4.99786	0.0265503	0.00396729	-0.0143433	4.00577	-0.73463	60.0665	1.05116	7.38801	-3.38224	0.00386963	-0.00482178	3.38224	
3.47461	-1.125	59.5872	4.99847	0.0259399	0.00183105	0.00518799	4.00414	-0.734816	60.0658	1.05115	7.38817	-3.38404	0.00375977	-0.00366211	3.38404	
3.51804	-1.25	61.0118	4.99664	0.0238037	0.00213623	-0.0527954	4.00211	-0.735315	60.0651	1.05114	7.38834	-3.38622	0.00375977	-0.0032959	3.38622	
3.9958	-0.9375	60.14	4.9942	0.0234985	0.00213623	0.0299072	3.99993	-0.736048	60.0646	1.05113	7.38844	-3.38851	0.00369873	-0.000476074	3.38851	
7.90474	-0.96875	60.0231	4.99542	0.0265503	0.00244141	-0.0375366	3.99835	-0.736934	60.0644	1.05113	7.3885	-3.39015	0.00366211	-0.0019165	3.39015	
3.77864	-0.90625	59.9912	4.99725	0.0271606	0.00305176	0.0167847	3.998	-0.737918	60.0641	1.05112	7.38857	-3.39056	0.00367432	-0.00223389	3.39056	
3.21401	-4.625	59.8849	4.99542	0.0259399	0.00396729	-0.000915527	3.99809	-0.739559	60.0638	1.05112	7.38864	-3.39056	0.00360107	-0.00447998	3.39056	
2.30193	-2.15625	59.7254	5.00153	0.0253296	0.00274658	0.0131226	3.99762	-0.742595	60.0633	1.05111	7.38874	-3.39112	0.00338135	-0.00531006	3.39112	
3.04028	-1.125	60.1294	4.99634	0.027771	0.00396729	-0.0167847	3.99638	-0.746624	60.0628	1.0511	7.38886	-3.39248	0.00343018	-0.00559082	3.39248	
5.12505	0.40625	60.8098	4.99054	0.0234985	0.00457764	0.0473022	3.9948	-0.75067	60.0623	1.05109	7.38896	-3.39416	0.00344238	-0.00368652	3.39416	
5.03818	-0.34375	60.4696	4.97742	0.0241089	0.00427246	0.0354004	3.99364	-0.75421	60.0622	1.05109	7.38899	-3.39535	0.00340576	-0.00570068	3.39535	
5.03818	-0.34375	60.3314	4.99084	0.0222778	0.00274658	-0.0265503	3.99318	-0.757256	60.0624	1.05109	7.38895	-3.39577	0.00340576	-0.00820313	3.39577	
4.34326	-1.15625	60.2251	4.98199	0.0253296	0.00396729	0.00305176	3.99327	-0.760065	60.0627	1.0511	7.38888	-3.3956	0.00350342	-0.00460205	3.3956	
4.29983	-4.15625	60.2463	4.9942	0.0259399	0.00549316	-0.00488281	3.99368	-0.763361	60.0632	1.05111	7.38878	-3.39509	0.00355225	-0.00552979	3.39509	
3.8655	-0.625	60.2038	4.9942	0.0241089	-0.00335693	0.00640869	3.99421	-0.767634	60.0637	1.05111	7.38866	-3.39445	0.003125	-0.00549316	3.39445	
4.08267	-0.65625	60.3314	4.9881	0.0259399	0.00366211	-0.0546265	3.99474	-0.772222	60.0643	1.05113	7.38851	-3.39377	0.003125	-0.00550537	3.39377	
4.60386	-0.59375	59.0344	4.98718	0.0250244	0.00396729	0.0305176	3.99535	-0.776564	60.0649	1.05114	7.38839	-3.39304	0.00308838	-0.00531006	3.39304	
5.42908	0.0625	60.4696	4.98169	0.0222778	0.00274658	-0.00610352	3.99637	-0.780548	60.0652	1.05114	7.38832	-3.39195	0.00307617	-0.00587158	3.39195	
2.77969	-0.28125	60.3101	4.98199	0.0231934	0.00518799	0.0326538	3.9977	-0.784025	60.0655	1.05115	7.38825	-3.39055	0.00316162	-0.00565186	3.39055	
3.08372	-1.96875	59.8211	4.98657	0.0265503	0.00274658	-0.00366211	3.99869	-0.787277	60.0659	1.05115	7.38816	-3.38948	0.00305176	-0.00567627	3.38948	
2.86655	-1.625	59.8849	4.99969	0.0259399	0.00213623	-0.0234985	3.99899	-0.790834	60.0662	1.05116	7.38809	-3.3891	0.00289307	-0.005896	3.3891	
3.73521	-0.96875	59.9699	4.98901	0.0234985	0.00305176	0.000305176	3.99875	-0.794735	60.0664	1.05116	7.38804	-3.3893	0.00296631	-0.00321045	3.3893	
3.95237	-0.9375	59.9912	4.9939	0.0231934	0.00366211	0.00762939	3.99825	-0.798706	60.0665	1.05116	7.38802	-3.38977	0.0029541	-0.00318604	3.38977	
3.60491	-1.28125	58.3221	4.98718	0.0280762	0.00366211	-0.0494385	3.99765	-0.802682	60.0663	1.05116	7.38806	-3.39041	0.00307617	-0.0045166	3.39041	
3.77864	-0.71875	60.0975	4.98352	0.0250244	0.00366211	0.0317383	3.99691	-0.806675	60.0656	1.05115	7.38823	-3.39131	0.00313721	-0.00124512	3.39131	
2.47566	-0.84375	59.8849	4.9884	0.0256348	0.00396729	-0.00183105	3.99584	-0.810581	60.0646	1.05113	7.38845	-3.39262	0.00313721	-0.000744629	3.39262	
3.30088	-1.28125	60.2463	4.99084	0.0259399	0.00274658	0.0247192	3.99418	-0.81442	60.0636	1.05111	7.38868	-3.39449	0.00317383	3.66211E-005	3.39449	
3.21401	0.59375	59.7148	4.98566	0.0259399	0.00396729	0.0665283	3.99202	-0.818055	60.0626	1.0511	7.3889	-3.39688	0.00324707	0.00480957	3.39688	
3.9958	-1.21875	59.8849	4.98596	0.0253296	0.00366211	0.012207	3.98958	-0.82126	60.0616	1.05108	7.38913	-3.39956	0.00330811	0.00410156	3.39956	
5.47251	0.09375	60.2038	4.97681	0.020752	0.00396729	-0.027771	3.98733	-0.824114	60.0605	1.05106	7.38938	-3.40205	0.00336914	0.00449219	3.40205	
5.16848	0.28125	60.459	4.97467	0.0231934	0.00366211	-0.0210571	3.98581	-0.826474	60.0595	1.05104	7.3896	-3.40379	0.00339355	0.00297852	3.40379	
5.12505	0	60.2676	4.97894	0.0271606	0.00274658	0.00976563	3.98512	-0.828137	60.0587	1.05103	7.38978	-3.40465	0.00334473	0.00340576	3.40465	
3.77864	-0.71875	60.0975	4.98932	0.0283813	0.00579834	0.0592041	3.98496	-0.829295	60.0581	1.05102	7.38991	-3.40495	0.0034668	0.00524902	3.40495	
11.3359	0.03125	60.0125	4.98199	0.0210571	0.00213623	-0.0570679	3.98606	-0.830117	60.0576	1.05101	7.39004	-3.40398	0.00339355	0.0036377	3.40398	
4.43013	1.375	60.055	4.97589	0.0247192	0.00335693	-0.0149536	3.98943	-0.830283	60.057	1.051	7.39016	-3.40073	0.00334473	0.00114746	3.40073	
4.16953	-0.625	59.938	4.97589	0.0259399	0.00152588	-0.0521851	3.994	-0.829594	60.0565	1.05099	7.39028	-3.39629	0.00323486	-0.00235596	3.39629	
4.86445	0.125	60.2038	4.97101	0.0256348	0.00366211	0.00762939	3.99866	-0.828375	60.0559	1.05098	7.39041	-3.39175	0.00327148	-0.00098877	3.39175	
5.73311	0.40625	61.0118	4.96918	0.0216675	0.00366211	-0.0234985	4.00372	-0.826679	60.0556	1.05097	7.39048	-3.38676	0.00325928	-0.00205078	3.38676	
5.08162	-0.28125	60.1613	4.96796	0.0250244	0.000305176	0.0137329	4.00944	-0.824428	60.0556	1.05097	7.39048	-3.38104	0.00305176	-0.00130615	3.38104	
4.38669	-1.4375	59.7148	4.98077	0.0271606	-0.00640869	0.0112915	4.01562	-0.821992	60.0557	1.05098	7.39045	-3.37483	0.00292969	-0.00111084	3.37483	
-1.43328	-1.0625	59.7998	4.98169	0.0259399	0.00396729	0.0326538	4.02102	-0.819784	60.0557	1.05098	7.39045	-3.36943	0.00294189	0.00238037	3.36943	
3.25745	-2	59.9061	4.97528	0.0234985	0.00183105	0.0204468	4.02448	-0.818008	60.0556	1.05097	7.39049	-3.36601	0.00285645	0.00197754	3.36601	
4.08267	-0.65625	59.8955	4.97589	0.0244141	0.00457764	0.00335693	4.02674	-0.816674	60.0553	1.05097	7.39055	-3.36381	0.00292969	0.00235596	3.36381	
3.90894	-0.4375	59.9699	4.97711	0.0259399	0.00152588	-0.017395	4.0288	-0.815462	60.055	1.05096	7.39063	-3.36182	0.0027832	0.000354004	3.36182	
4.16953	-1.0625	59.9593	4.97345	0.0265503	0.00457764	0.0265503	4.03079	-0.814188	60.0546	1.05095	7.39072	-3.35993	0.00285645	0.0015625	3.35993	
4.08267	-0.65625	59.8849	4.97864	0.0256348	0.00335693	-0.0222778	4.03273	-0.812952	60.0541	1.05095	7.39082	-3.35808	0.00290527	0.00161133	3.35808	
4.38669	-0.71875	59.7892	4.97559	0.0265503	0.00366211	-0.0305176	4.0347	-0.811735	60.0536	1.05094	7.39094	-3.35624	0.00292969	0.000378418	3.35624	
-6.124	-2.09375	59.5872	4.9826	0.027771	0.00396729	0.022583	4.03515	-0.810707	60.0529	1.05093	7.3911	-3.35596	0.00294189	0.000976563	3.35596	
3.73521	-2.71875	59.7786	4.97772	0.0265503	0.00457764	0.0161743	4.03243	-0.810395	60.052	1.05091	7.39131	-3.35888	0.00297852	0.00360107	3.35888	
4.64729	2.59375	60.3314	4.96887	0.0247192	0.00213623	-0.0405884	4.02823	-0.810356	60.051	1.05089	7.39153	-3.3633	0.00291748	0.000708008	3.3633	
5.12505	0.34375	60.2995	4.97223	0.0238037	0.00305176	-0.0357056	4.0245	-0.80938	60.0501	1.05088	7.39173	-3.36723	0.00288086	-0.000646973	3.36723	
4.29983	-1.375	60.2463	4.98962	0.0265503	0.00274658	0.00518799	4.02138	-0.807639	60.0494	1.05086	7.39188	-3.37051	0.00288086	-0.00142822	3.37051	
4.1261	-0.4375	60.0231	4.97681	0.0259399	0.00396729	0.00274658	4.01864	-0.8059	60.0488	1.05085	7.39201	-3.37337	0.00288086	-0.00397949	3.37337	
3.51804	-0.34375	59.9487	4.9823	0.0253296	0.00274658	-0.045166	4.01599	-0.804123	60.0483	1.05085	7.39213	-3.37614	0.00284424	-0.00627441	3.37614	
4.73416	-0.28125	60.0443	4.97925	0.0247192	0.00274658	0.00793457	4.01342	-0.802128	60.0477	1.05084	7.39226	-3.37884	0.00279541	-0.00484619	3.37884	
3.95237	-1.3125	59.9912	4.97955	0.0259399	0.00335693	-0.0213623	4.01107	-0.800049	60.0472	1.05083	7.39239	-3.38132	0.0027832	-0.0048584	3.38132	
4.34326	5	60.2463	4.97894	0.0234985	0.00457764	0.0421143	4.00894	-0.797221	60.0466	1.05082	7.39251	-3.38356	0.00285645	-0.00356445	3.38356	
6.38459	0.3125	60.3314	4.97406	0.0241089	-0.00457764	-0.0668335	4.00736	-0.7926	60.0462	1.05081	7.3926	-3.38524	0.00244141	-0.00860596	3.38524	
4.90789	-0.03125	59.7467	4.97925	0.0265503	0.00213623	0.0183105	4.00676	-0.786782	60.0459	1.0508	7.39268	-3.38592	0.00244141	-0.00559082	3.38592	
2.47566	-0.96875	56.6317	4.99146	0.0247192	0.00213623	0.0683594	4.00659	-0.780789	60.045	1.05079	7.39288	-3.38629	0.00239258	-0.0022583	3.38629	
2.21506	-0.90625	59.7786	4.99084	0.0256348	0.00396729	0.0119019	4.00582	-0.774968	60.043	1.05075	7.39333	-3.38752	0.00249023	0.000305176	3.38752	
3.77864	-1.28125	59.8424	4.98718	0.0265503	0.00274658	-0.0363159	4.00424	-0.769499	60.0404	1.05071	7.39392	-3.38968	0.00245361	-0.00145264	3.38968	
3.56147	-0.0625	60.055	4.99176	0.0265503	0.00366211	-0.0109863	4.0023	-0.764292	60.0378	1.05066	7.3945	-3.3922	0.00245361	-0.000952148	3.3922	
2.90999	3.15625	60.0337	4.99115	0.0259399	0.00457764	-0.00640869	4.00009	-0.75852	60.0353	1.05062	7.39507	-3.39498	0.00262451	-0.00175781	3.39498	
3.47461	-1.09375	59.9699	4.98749	0.0256348	0.00396729	0.00213623	3.99747	-0.75168	60.0328	1.05057	7.39563	-3.39816	0.00303955	-0.00212402	3.39816	
3.51804	-0.34375	59.9274	4.98718	0.0247192	0.00335693	0.0143433	3.99453	-0.744515	60.0304	1.05053	7.39617	-3.40163	0.00301514	-0.00285645	3.40163	
2.90999	-1.125	61.2244	4.99054	0.0265503	0.00396729	0.0280762	3.99131	-0.737589	60.0283	1.05049	7.39666	-3.40535	0.00310059	-0.00255127	3.40535	
1.78074	-1.96875	59.6935	4.99146	0.0274658	0.00335693	0.0100708	3.98744	-0.731155	60.0265	1.05046	7.39706	-3.40963	0.00305176	-0.00228271	3.40963	
6.29773	-1.03125	59.9912	4.9939	0.0241089	0.00396729	-0.00213623	3.98321	-0.725437	60.0248	1.05043	7.39744	-3.41423	0.00314941	-0.00167236	3.41423	
4.60386	0.78125	60.3101	4.98718	0.0234985	0.00488281	0.00396729	3.9796	-0.719973	60.0232	1.05041	7.3978	-3.4182	0.00316162	-0.00257568	3.4182	
4.64729	-1.59375	60.3314	4.98474	0.0271606	0.00335693	-0.0134277	3.97678	-0.714418	60.0218	1.05038	7.39812	-3.42134	0.00316162	-0.00222168	3.42134	
4.47356	-0.1875	60.1613	4.99237	0.0262451	0.00183105	-0.0485229	3.97444	-0.709016	60.0206	1.05036	7.39839	-3.42396	0.00308838	-0.00294189	3.42396	
3.60491	-0.78125	60.4802	4.99237	0.0210571	0.00335693	0.0164795	3.97238	-0.703789	60.0196	1.05034	7.39862	-3.42624	0.00306396	-0.00318604	3.42624	
4.08267	-0.90625	62.2025	4.9942	0.0247192	0.00244141	0.0161743	3.97037	-0.69872	60.0191	1.05033	7.39873	-3.42836	0.00297852	-0.00318604	3.42836	
4.16953	-0.78125	60.055	4.99481	0.0280762	0.000305176	0.032959	3.96844	-0.693919	60.0194	1.05034	7.39866	-3.43021	0.00290527	-0.000244141	3.43021	
4.1261	-0.46875	60.0869	4.97894	0.0247192	0.000610352	-0.0112915	3.96669	-0.68931	60.0201	1.05035	7.39851	-3.43182	0.00280762	0.000732422	3.43182	
4.43013	-0.34375	60.2251	4.9939	0.0241089	0.00396729	0.00640869	3.96515	-0.684754	60.0208	1.05036	7.39835	-3.43321	0.00285645	0.00078125	3.43321	
4.90789	-3.90625	60.4696	4.98749	0.0247192	0.00213623	-0.00946045	3.96398	-0.680717	60.0216	1.05038	7.39817	-3.4342	0.0027832	0.000292969	3.4342	
4.86445	-0.40625	60.1826	4.99146	0.027771	0.00335693	-0.0494385	3.96335	-0.677728	60.0226	1.05039	7.39795	-3.4346	0.00280762	0.00012207	3.4346	
2.60596	-1.34375	60.1294	4.99908	0.0262451	0.00396729	-0.0369263	3.96296	-0.675363	60.0236	1.05041	7.39771	-3.43475	0.00285645	-0.00167236	3.43475	
2.77969	-1.71875	62.2663	4.99969	0.0262451	0.00274658	-0.0195313	3.96212	-0.673409	60.0251	1.05044	7.39738	-3.43526	0.00283203	-0.00159912	3.43526	
3.25745	-1.21875	59.9912	4.99481	0.0250244	0.00213623	-0.0796509	3.96062	-0.672035	60.0272	1.05048	7.39691	-3.43628	0.00273437	-0.00646973	3.43628	
1.47671	-1.09375	60.055	4.9939	0.0241089	0.00457764	0.0350952	3.95839	-0.671107	60.0295	1.05052	7.39637	-3.43798	0.00310059	-0.00239258	3.43798	
1.95447	-1.375	60.055	4.98352	0.0259399	0.00213623	0.0253296	3.95505	-0.670537	60.0318	1.05056	7.39585	-3.44081	0.00310059	-0.00211182	3.44081	
3.77864	1.625	60.0975	4.99237	0.0259399	0.000915527	-0.032959	3.95079	-0.669914	60.0341	1.0506	7.39535	-3.44456	0.00305176	-0.00616455	3.44456	
3.73521	-0.75	60.2145	4.9939	0.0244141	0.00366211	0.0427246	3.94628	-0.668723	60.0363	1.05063	7.39485	-3.44857	0.00303955	-0.00493164	3.44857	
3.38774	-1.28125	59.9806	4.99725	0.0280762	0.00366211	-0.0271606	3.94175	-0.667339	60.0385	1.05067	7.39436	-3.4526	0.00307617	-0.00456543	3.4526	
2.38879	-1.46875	59.8636	4.99817	0.0265503	0.00183105	0.0491333	3.93694	-0.66633	60.0405	1.05071	7.39389	-3.45695	0.00300293	-0.00216064	3.45695	
3.38774	-1.03125	60.0337	4.99237	0.0234985	0.00762939	-0.0131226	3.93164	-0.665757	60.0425	1.05074	7.39344	-3.4618	0.003125	-0.0024292	3.4618	
3.47461	-0.28125	60.3101	4.9881	0.0231934	0.00213623	0.0265503	3.92605	-0.665383	60.0444	1.05078	7.39302	-3.46696	0.00305176	-0.00145264	3.46696	
-0.521191	-0.125	60.4696	4.97528	0.0247192	0.00457764	-0.0189209	3.91974	-0.664875	60.0464	1.05081	7.39257	-3.47283	0.00310059	-0.0027832	3.47283	
4.69072	2.0625	60.2038	4.98505	0.0256348	0.00366211	-0.015564	3.91232	-0.663735	60.0485	1.05085	7.39209	-3.47977	0.00308838	-0.00452881	3.47977	
4.51699	-0.5625	60.2676	4.98901	0.0256348	0.00396729	0.0119019	3.90481	-0.66169	60.0506	1.05089	7.3916	-3.48679	0.00311279	-0.00445557	3.48679	
4.2564	-0.8125	60.0975	4.99146	0.0265503	0.00274658	-0.0012207	3.89793	-0.659286	60.0528	1.05092	7.39111	-3.49317	0.00306396	-0.00441895	3.49317	
3.8655	-0.65625	59.0982	4.98932	0.0271606	0.00305176	-0.0515747	3.89149	-0.656998	60.0549	1.05096	7.39065	-3.49915	0.00299072	-0.00664062	3.49915	
4.2564	-0.34375	60.0975	4.98657	0.0234985	0.00213623	-0.0143433	3.88539	-0.654765	60.0565	1.05099	7.39027	-3.50489	0.00294189	-0.00667725	3.50489	
6.08057	-0.34375	60.2251	4.98199	0.0231934	0.00366211	0.0646973	3.87994	-0.652466	60.058	1.05102	7.38993	-3.50999	0.00301514	-0.00214844	3.50999	
6.16743	0.03125	60.3952	4.99359	0.0241089	0.00366211	-0.0305176	3.87579	-0.649997	60.0596	1.05104	7.38958	-3.5138	0.00302734	-0.00402832	3.5138	
4.90789	0.375	60.2463	4.97894	0.0256348	0.00457764	0.00549316	3.87299	-0.647197	60.0613	1.05107	7.38921	-3.51622	0.00311279	-0.00445557	3.51622	
3.30088	-1.46875	59.7998	4.98566	0.0265503	0.00396729	0.0149536	3.87088	-0.644199	60.0629	1.0511	7.38883	-3.51795	0.00325928	-0.00517578	3.51795	
3.21401	-1.34375	59.651	4.98627	0.0256348	0.00366211	-0.00457764	3.86872	-0.641512	60.0644	1.05113	7.38849	-3.51977	0.00338135	-0.00490723	3.51977	
4.1261	-0.78125	59.5978	4.98322	0.0231934	0.00366211	0.00549316	3.86639	-0.639287	60.0656	1.05115	7.38822	-3.52183	0.00336914	-0.00494385	3.52183	
3.8655	-0.78125	59.9912	4.98077	0.0241089	0.00152588	0.0424194	3.86412	-0.637315	60.0666	1.05116	7.388	-3.52389	0.00334473	-0.00286865	3.52389	
5.38564	-0.53125	59.9593	4.98199	0.0253296	0.00366211	0.0192261	3.8622	-0.635463	60.0674	1.05118	7.38783	-3.52562	0.00335693	-0.00012207	3.52562	
15.0277	-0.375	60.1188	4.99115	0.0265503	0.00274658	-0.00152588	3.86256	-0.633625	60.0681	1.05119	7.38766	-3.5251	0.00330811	0.00129395	3.5251	
4.03923	-0.875	58.9599	4.98444	0.0256348	0.00518799	-0.0253296	3.86663	-0.631793	60.0686	1.0512	7.38754	-3.52091	0.00340576	0.00106201	3.52091	
3.8655	-1.71875	59.7892	4.98444	0.0259399	0.00457764	0.0088501	3.87235	-0.630229	60.0688	1.0512	7.38751	-3.51516	0.00350342	0.00460205	3.51516	
2.51909	-1.84375	59.651	4.98535	0.0274658	0.00396729	0.015564	3.87768	-0.629283	60.0686	1.0512	7.38755	-3.50988	0.003479	0.0038208	3.50988	
3.69177	-1.4375	60.0975	4.98291	0.0259399	0.00213623	0.0177002	3.88237	-0.629042	60.0682	1.05119	7.38764	-3.50527	0.003479	0.00351563	3.50527	
5.8634	0.21875	60.459	4.97192	0.0268555	0.000915527	-0.0259399	3.88693	-0.629117	60.0679	1.05119	7.38771	-3.50078	0.003479	0.00379639	3.50078	
6.68862	0.125	60.2038	4.97284	0.0262451	0.00274658	0.0180054	3.89236	-0.628934	60.0677	1.05118	7.38775	-3.4954	0.00344238	0.00280762	3.4954	
10.0329	0.03125	60.14	4.97467	0.0259399	0.00396729	-0.0384521	3.89971	-0.628291	60.0676	1.05118	7.38777	-3.48805	0.00345459	0.00235596	3.48805	
4.73416	-1.34375	60.1613	4.97467	0.0250244	0.00488281	0.00823975	3.90928	-0.627459	60.0676	1.05118	7.38777	-3.47848	0.00357666	0.000720215	3.47848	
4.64729	-7.53125	59.9912	4.9765	0.0274658	0.00335693	0.0286865	3.91984	-0.627847	60.0677	1.05118	7.38776	-3.46792	0.00340576	0.00239258	3.46792	
4.2564	-0.46875	60.0656	4.9762	0.0259399	0.00213623	0.0149536	3.93043	-0.63045	60.0677	1.05118	7.38776	-3.45733	0.00340576	0.00192871	3.45733	
4.1261	-0.15625	60.7141	4.97864	0.0234985	0.00457764	-0.0177002	3.94089	-0.63391	60.0678	1.05119	7.38773	-3.44684	0.00340576	0.00197754	3.44684	
5.29878	0.125	60.1613	4.97192	0.0241089	0.00396729	0.00640869	3.9513	-0.636957	60.0681	1.05119	7.38766	-3.43636	0.00341797	0.00285645	3.43636	
5.12505	0.53125	60.3314	4.9707	0.0280762	0.0088501	-0.0302124	3.96198	-0.639405	60.0686	1.0512	7.38755	-3.42557	0.00361328	0.00117188	3.42557	
-1.38984	0.0625	60.0869	4.97131	0.0241089	0.00366211	0.0280762	3.97202	-0.641177	60.0691	1.05121	7.38743	-3.4154	0.0036499	0.00234375	3.4154	
3.25745	-1.59375	59.6722	4.97772	0.0274658	-0.00274658	0.0112915	3.98012	-0.642634	60.0696	1.05122	7.38731	-3.40719	0.00341797	0.0048584	3.40719	
3.43118	0.71875	59.8105	4.97864	0.0244141	0.00366211	0.062561	3.98679	-0.644016	60.07	1.05122	7.38723	-3.40044	0.003479	0.00793457	3.40044	
3.56147	-0.9375	59.8849	4.97711	0.0238037	0.00396729	0.0274658	3.99288	-0.645119	60.0701	1.05123	7.3872	-3.39432	0.00349121	0.00644531	3.39432	
3.73521	-0.53125	60.0443	4.97467	0.0250244	0.00366211	-0.0338745	3.99849	-0.646045	60.0702	1.05123	7.38718	-3.38869	0.00349121	0.00631104	3.38869	
3.8655	-1.375	59.9487	4.97406	0.0259399	0.00213623	0.032959	4.00374	-0.647061	60.0702	1.05123	7.38719	-3.38345	0.00339355	0.00740967	3.38345	
3.47461	-0.375	59.9912	4.97833	0.0250244	0.00488281	0.0259399	4.00864	-0.648207	60.0701	1.05123	7.3872	-3.37856	0.00343018	0.00784912	3.37856	
-1.25955	-0.53125	59.853	4.97437	0.0280762	0	-0.050354	4.01236	-0.649324	60.07	1.05123	7.38723	-3.37487	0.00328369	0.00601807	3.37487	
3.60491	-0.6875	59.8211	4.98169	0.0274658	0.00274658	-0.0222778	4.01417	-0.650328	60.0698	1.05122	7.38728	-3.37312	0.00324707	0.00490723	3.37312	
2.82312	4.8125	59.6722	4.98413	0.0241089	0.00213623	0.0942993	4.01478	-0.650442	60.0693	1.05121	7.38738	-3.3726	0.00327148	0.00698242	3.3726	
3.12715	-0.96875	59.7148	4.98199	0.0259399	0.00457764	-0.0344849	4.0148	-0.648913	60.0687	1.0512	7.38752	-3.37271	0.00330811	0.00483398	3.37271	
5.51594	0.15625	60.3527	4.9765	0.0241089	0.00152588	-0.0320435	4.0146	-0.646564	60.068	1.05119	7.38768	-3.37308	0.00325928	0.00361328	3.37308	
4.82102	0.03125	60.1613	4.97284	0.0250244	0.00396729	-0.0247192	4.01485	-0.643992	60.0674	1.05118	7.38782	-3.37297	0.00321045	0.0036377	3.37297	
4.64729	0.125	60.1188	4.97589	0.0228882	-0.00274658	-0.0350952	4.01568	-0.641058	60.0668	1.05117	7.38795	-3.37227	0.00291748	0.00187988	3.37227	
6.77549	-0.125	60.0975	4.98077	0.0244141	0.0012207	-0.0354004	4.01723	-0.637804	60.0663	1.05116	7.38806	-3.37083	0.00280762	-0.000158691	3.37083	
4.16953	0.21875	60.055	4.98352	0.0265503	0.00518799	0.0769043	4.0197	-0.634253	60.0659	1.05115	7.38816	-3.36846	0.00292969	0.00220947	3.36846	
3.95237	5.1875	59.9912	4.98169	0.0271606	0.00274658	0.0308228	4.02255	-0.629579	60.0654	1.05115	7.38826	-3.36572	0.00300293	0.00447998	3.36572	
4.08267	-0.625	60.0869	4.9826	0.0228882	0.00701904	0.00274658	4.0253	-0.623131	60.065	1.05114	7.38836	-3.36306	0.00317383	0.00386963	3.36306	
4.43013	0.03125	59.8424	4.98077	0.0234985	0.00396729	0.0143433	4.02804	-0.615906	60.0645	1.05113	7.38847	-3.36044	0.00317383	0.00598145	3.36044	
5.25535	0.34375	61.352	4.97772	0.0259399	0.00305176	-0.0570679	4.031	-0.608585	60.0642	1.05112	7.38855	-3.35755	0.00310059	0.00336914	3.35755	
5.16848	-0.28125	60.2463	4.97864	0.0271606	-0.00396729	-0.0473022	4.03447	-0.601074	60.0643	1.05112	7.38853	-3.35406	0.00280762	0.00032959	3.35406	
7.03608	-1.3125	59.7998	4.99176	0.0259399	0.00518799	0.0485229	4.03883	-0.59369	60.0645	1.05113	7.38846	-3.34963	0.00292969	0.00167236	3.34963	
2.69282	-1.125	59.7148	4.99908	0.0253296	0.00305176	0.0143433	4.04394	-0.586821	60.0647	1.05113	7.38842	-3.34449	0.00286865	0.0029541	3.34449	
3.47461	-0.71875	59.7573	4.98169	0.0234985	0.00213623	-0.0125122	4.04882	-0.580492	60.0647	1.05113	7.38843	-3.33961	0.00279541	0.00219727	3.33961	
3.43118	-1.03125	59.9699	4.98901	0.0259399	0.00305176	-0.0125122	4.05305	-0.574581	60.0645	1.05113	7.38847	-3.33543	0.00256348	0.00290527	3.33543	
3.47461	-0.65625	59.9699	4.97772	0.0241089	0.00396729	-0.00274658	4.05676	-0.569053	60.0642	1.05112	7.38854	-3.33178	0.00257568	0.00167236	3.33178	
3.21401	-0.90625	59.651	4.99207	0.027771	0.0012207	-0.0265503	4.05993	-0.563869	60.0638	1.05112	7.38862	-3.3287	0.00273437	0.000158691	3.3287	
4.08267	-0.9375	60.0443	4.98962	0.0253296	0.00610352	-0.00335693	4.06264	-0.559045	60.0633	1.05111	7.38874	-3.3261	0.00283203	-0.00247803	3.3261	
5.42908	-1.09375	59.7998	4.9939	0.0265503	0.00518799	0.0253296	4.06534	-0.554644	60.0627	1.0511	7.38887	-3.32354	0.00288086	-0.00256348	3.32354	
2.56252	-2.53125	59.7041	4.99115	0.0271606	0.00396729	-0.0460815	4.06814	-0.55093	60.062	1.05109	7.38904	-3.3209	0.00289307	-0.00305176	3.3209	
3.17058	-4.625	60.0975	4.9942	0.0259399	0.00396729	-0.00946045	4.07044	-0.548676	60.0612	1.05107	7.38923	-3.31878	0.00296631	-0.00474854	3.31878	
4.82102	0	60.3314	4.98688	0.0234985	0.00305176	0.00183105	4.07227	-0.547988	60.0603	1.05106	7.38941	-3.31714	0.00289307	-0.00571289	3.31714	
4.47356	-0.09375	60.5547	4.98596	0.0241089	0.00305176	-0.0363159	4.07419	-0.547717	60.0597	1.05105	7.38955	-3.31536	0.00301514	-0.00515137	3.31536	
4.1261	-0.59375	60.9799	4.98871	0.0265503	0.00274658	-0.00427246	4.0763	-0.547236	60.0595	1.05104	7.38961	-3.31332	0.00301514	-0.00443115	3.31332	
3.90894	-0.34375	60.14	4.99268	0.027771	0.00640869	0.0115967	4.07837	-0.546684	60.0596	1.05104	7.38958	-3.31121	0.00318604	-0.00773926	3.31121	
2.77969	-0.59375	60.1613	4.99237	0.0259399	0.00274658	0.0344849	4.08013	-0.546104	60.0599	1.05105	7.38951	-3.30938	0.00311279	-0.00498047	3.30938	
4.34326	-1.375	59.9912	4.99481	0.0256348	0.00335693	0.0466919	4.08144	-0.545655	60.0602	1.05105	7.38944	-3.308	0.00318604	-0.00183105	3.308	
4.03923	-0.84375	60.2145	4.99176	0.0234985	0.00152588	0.00701904	4.08258	-0.545534	60.0605	1.05106	7.38937	-3.30679	0.00308838	-0.000561523	3.30679	
4.1261	0.03125	60.3101	4.99054	0.0259399	0.00213623	0.0125122	4.08371	-0.545548	60.0609	1.05107	7.38928	-3.30557	0.00328369	0.00134277	3.30557	
5.12505	0.21875	60.5547	4.98962	0.0259399	0.00244141	-0.0372314	4.08497	-0.54531	60.0615	1.05108	7.38915	-3.30418	0.00333252	0.00126953	3.30418	
4.47356	-0.34375	58.7473	4.98749	0.0241089	0.00396729	0.0390625	4.08657	-0.544723	60.062	1.05109	7.38903	-3.30246	0.00328369	-0.000244141	3.30246	
2.56252	-3.96875	59.7467	4.99878	0.0271606	0.00274658	0.0109863	4.08816	-0.544507	60.0622	1.05109	7.389	-3.30084	0.00328369	-0.0010376	3.30084	
1.17268	-1.40625	59.8424	4.99908	0.0283813	0.00335693	-0.0320435	4.08883	-0.545464	60.062	1.05108	7.38905	-3.30021	0.00313721	-0.0024292	3.30021	
