14.159	0.71875	32.4664	4.9707	0.0247192	0.00396729	-0.0415039	14.159	0.71875	32.4664	0.568161	12.5409	1.61818	0.00396729	-0.0415039	1.61818	
12.7692	-0.21875	30.1593	4.97528	0.0253296	0.00549316	0.0195313	14.1588	0.718605	32.466	0.568155	12.5409	1.61791	0.00473022	-0.0109863	1.61791	
10.945	-0.28125	30.4251	4.97528	0.0234985	0.00213623	-0.0149536	14.1577	0.718018	32.4646	0.568131	12.5411	1.61658	0.00386556	-0.0123088	1.61658	
21.89	-0.09375	30.053	4.97223	0.0247192	0.00427246	0.0131226	14.1566	0.716871	32.4619	0.568084	12.5415	1.6151	0.00396729	-0.00595093	1.6151	
12.248	-0.84375	30.17	4.98169	0.0253296	0.00152588	0.00549316	14.1571	0.715115	32.4579	0.568014	12.542	1.61507	0.003479	-0.00366211	1.61507	
12.8995	-0.3125	30.053	4.97894	0.0241089	0.00274658	0.0152588	14.158	0.712652	32.4526	0.56792	12.5428	1.61525	0.00335693	-0.000508626	1.61525	
12.6389	-0.34375	30.0956	4.9762	0.0231934	0.00457764	-0.00518799	14.158	0.709552	32.446	0.567804	12.5437	1.61429	0.00353132	-0.00117711	1.61429	
12.8561	0.03125	30.372	4.97528	0.0256348	0.00183105	-0.0369263	14.1571	0.705969	32.4382	0.567668	12.5448	1.6123	0.00331879	-0.00564575	1.6123	
13.5944	0.28125	32.2856	4.97437	0.0247192	0.00152588	-0.0100708	14.1555	0.702073	32.4296	0.567518	12.546	1.60951	0.00311957	-0.00613742	1.60951	
12.6823	-0.75	30.0105	4.97925	0.0231934	0.0012207	-0.0119019	14.1534	0.697854	32.4206	0.567361	12.5473	1.60612	0.00292969	-0.00671387	1.60612	
9.46831	-1.96875	29.6065	4.98657	0.0256348	0.00244141	0.0387573	14.15	0.692854	32.4107	0.567187	12.5486	1.6014	0.0028853	-0.00258012	1.6014	
17.9377	-0.84375	29.7766	4.98993	0.0253296	0.00274658	0.015564	14.1457	0.68674	32.3995	0.566992	12.5502	1.59552	0.00287374	-0.00106812	1.59552	
11.9874	-1.5625	30.1381	4.98535	0.0250244	0.00457764	0.0109863	14.1417	0.679605	32.3871	0.566774	12.5519	1.58974	0.00300481	-0.00014085	1.58974	
10.6844	-5.84375	30.2125	4.98413	0.0241089	0.00366211	0.00152588	14.1372	0.670774	32.3737	0.56654	12.5538	1.58335	0.00305176	-2.17983E-005	1.58335	
12.0743	-0.78125	30.1593	4.98199	0.0265503	0.00213623	0.0204468	14.1311	0.659658	32.3594	0.566289	12.5558	1.57526	0.00299072	0.00134277	1.57526	
12.2046	-0.375	29.6916	4.98169	0.0247192	0.00457764	-0.00671387	14.1237	0.647314	32.3442	0.566023	12.5579	1.56579	0.0030899	0.000839233	1.56579	
11.6399	-0.84375	32.1793	4.98749	0.0228882	0.00213623	-0.032959	14.1153	0.634631	32.3283	0.565745	12.5602	1.55518	0.00303381	-0.0011489	1.55518	
10.945	-1.4375	30.0318	4.98566	0.0234985	0.00579834	-0.0119019	14.1057	0.621454	32.3121	0.565462	12.5624	1.54328	0.00318739	-0.00174628	1.54328	
9.8592	-1.3125	29.7128	4.98688	0.0256348	0.00457764	0.0177002	14.0944	0.607571	32.2954	0.56517	12.5647	1.52961	0.00326056	-0.000722785	1.52961	
21.4123	-0.40625	30.2444	4.98413	0.0256348	0.00152588	-0.0131226	14.0827	0.593103	32.2778	0.564862	12.5672	1.51555	0.00317383	-0.00134277	1.51555	
13.5944	0.90625	30.3613	4.98077	0.0231934	0.00335693	-0.00915527	14.0731	0.578582	32.2595	0.564541	12.5698	1.50334	0.00318255	-0.0017148	1.50334	
13.3338	0.1875	30.1593	4.98199	0.0231934	0.00457764	0.0161743	14.0646	0.564457	32.2406	0.56421	12.5724	1.49226	0.00324596	-0.000901656	1.49226	
12.3783	-0.3125	30.3188	4.98688	0.0265503	0.00213623	-0.0088501	14.0559	0.550625	32.2211	0.56387	12.5751	1.48083	0.00319771	-0.00124724	1.48083	
12.6389	-0.375	29.7341	4.9881	0.0241089	0.00274658	0.0137329	14.0467	0.536809	32.201	0.563518	12.5779	1.46878	0.00317891	-0.000623067	1.46878	
12.552	-0.78125	30.7334	4.9881	0.0253296	0.00457764	0.00488281	14.0368	0.522856	32.1804	0.563156	12.5808	1.45604	0.00323486	-0.000402832	1.45604	
12.552	-0.40625	30.1062	4.98505	0.0265503	0.00213623	-0.0244141	14.0264	0.508702	32.1593	0.562787	12.5837	1.44268	0.00316162	0.000280762	1.44268	
10.4673	-0.78125	30.2763	4.9826	0.0241089	0.00396729	0.0302124	14.0151	0.494358	32.1377	0.56241	12.5867	1.42838	0.00310059	0.000708008	1.42838	
12.9429	0.21875	30.2763	4.99146	0.0234985	0.00396729	-0.0299072	14.0027	0.479937	32.1158	0.562026	12.5897	1.41294	0.00317383	0.000109863	1.41294	
12.9864	-0.90625	30.6484	4.98566	0.0244141	0.00152588	-0.00244141	13.9897	0.465527	32.0935	0.561637	12.5928	1.39684	0.00306396	-0.000512695	1.39684	
11.8137	-9.71875	30.1593	4.99023	0.0247192	0.00366211	0.0372314	13.9763	0.449577	32.071	0.561243	12.5959	1.38036	0.00314941	0.000756836	1.38036	
10.9016	-2.09375	29.9467	4.99695	0.0247192	0.00335693	-0.00457764	13.9621	0.430424	32.0481	0.560842	12.5991	1.363	0.00317383	-3.66211E-005	1.363	
11.4228	-0.53125	29.9467	4.9942	0.0247192	0.00244141	0.0436401	13.9467	0.409433	32.0248	0.560434	12.6023	1.34439	0.00308838	0.0019165	1.34439	
11.5096	-0.96875	32.2325	4.9942	0.0231934	0.00305176	-0.00762939	13.9303	0.38828	32.0013	0.560023	12.6056	1.32466	0.00313721	0.00308838	1.32466	
12.1177	-0.71875	30.1062	4.99146	0.0256348	0.00335693	-0.000610352	13.9129	0.367131	31.9781	0.559617	12.6088	1.30414	0.00321045	0.0034668	1.30414	
9.90264	-1.34375	29.9892	4.99207	0.0253296	0.00213623	0.0610352	13.8947	0.345911	31.9549	0.559211	12.612	1.28266	0.00324707	0.00638428	1.28266	
20.8042	-0.6875	30.1381	4.98657	0.0241089	0.00183105	-0.00366211	13.8766	0.324582	31.9313	0.558798	12.6153	1.26133	0.00322266	0.0046875	1.26133	
11.9874	0.21875	30.0743	4.99298	0.0241089	0.00396729	0.00183105	13.8604	0.303409	31.9074	0.558379	12.6186	1.24183	0.00327148	0.00413818	1.24183	
11.1188	-1.28125	30.0743	4.99695	0.0271606	0.00274658	0.0289917	13.8448	0.282549	31.8832	0.557956	12.6219	1.22293	0.00319824	0.0048584	1.22293	
10.6844	-1.53125	30.0956	4.99603	0.0241089	0.00335693	0.00518799	13.8282	0.261641	31.8587	0.557527	12.6253	1.20291	0.00318604	0.00500488	1.20291	
12.0308	-0.53125	29.7979	4.9884	0.0234985	0.00335693	0.00823975	13.8104	0.240545	31.8339	0.557094	12.6287	1.18176	0.00323486	0.0045166	1.18176	
12.8561	-0.09375	32.2325	4.98566	0.0244141	0.00152588	-0.00640869	13.7921	0.219619	31.8092	0.556661	12.6321	1.16005	0.00311279	0.00452881	1.16005	
12.2914	-1.03125	30.372	4.99023	0.0250244	0.0012207	-0.0430298	13.7737	0.199017	31.7849	0.556236	12.6354	1.13825	0.00307617	0.00412598	1.13825	
10.6844	-0.6875	30.372	4.99023	0.0216675	0.00366211	-0.0204468	13.7548	0.178569	31.7609	0.555815	12.6387	1.11605	0.00299072	0.00378418	1.11605	
19.1972	-0.34375	30.372	5.00397	0.0247192	0.000610352	0.0012207	13.7362	0.158297	31.7368	0.555394	12.642	1.09417	0.00283203	0.003125	1.09417	
12.552	-0.96875	30.1912	4.99237	0.0247192	0.00274658	0.00457764	13.7193	0.138272	31.7127	0.554973	12.6453	1.07398	0.00288086	0.00383301	1.07398	
12.248	-7.25	30.2231	4.98993	0.0253296	0.00518799	0.0427246	13.7033	0.117382	31.6886	0.55455	12.6487	1.05463	0.0029541	0.0059082	1.05463	
12.1611	-0.125	30.457	4.99084	0.0222778	0.00244141	0.0192261	13.6869	0.0947289	31.6644	0.554127	12.652	1.03496	0.00286865	0.00603027	1.03496	
13.1167	-0.375	30.1168	4.98993	0.0228882	0.00274658	-0.0143433	13.6704	0.0715864	31.6402	0.553704	12.6553	1.01509	0.00289307	0.00581055	1.01509	
13.4641	0.21875	32.3494	4.98749	0.0247192	0.00366211	0.0210571	13.654	0.049106	31.6163	0.553286	12.6586	0.995397	0.00292969	0.00610352	0.995397	
11.3793	-0.78125	30.2231	4.9939	0.0265503	0.00366211	-0.00518799	13.6376	0.0272687	31.5931	0.552878	12.6617	0.975871	0.00289307	0.00570068	0.975871	
9.33801	-1.59375	29.8723	4.99481	0.0247192	0.00213623	-0.0128174	13.6204	0.0057213	31.57	0.552475	12.6649	0.955556	0.00289307	0.00616455	0.955556	
17.2862	-1.34375	30.1168	4.9939	0.0265503	0.00396729	0.0424194	13.6028	-0.0159013	31.5468	0.55207	12.6681	0.934712	0.00289307	0.00665283	0.934712	
12.1177	-1.34375	30.1168	4.9942	0.0265503	0.00152588	-0.0112915	13.586	-0.0376316	31.5235	0.551662	12.6712	0.914724	0.00279541	0.00739746	0.914724	
12.1177	-1.09375	29.9786	4.99054	0.0216675	0.00335693	0.017395	13.5696	-0.0593748	31.5001	0.551252	12.6744	0.895204	0.00286865	0.00819092	0.895204	
12.1177	-1.15625	30.3082	4.9942	0.0259399	0.00366211	-0.00915527	13.553	-0.081049	31.4767	0.550842	12.6776	0.875348	0.00286865	0.00633545	0.875348	
11.5531	-0.875	29.7979	4.99054	0.0265503	0.00152588	-0.0509644	13.5359	-0.10258	31.4532	0.550431	12.6808	0.855092	0.00279541	0.00447998	0.855092	
13.4641	-1.03125	31.063	4.99359	0.0265503	0.00213623	-0.0326538	13.5186	-0.123907	31.4298	0.550022	12.684	0.834598	0.0027832	0.00142822	0.834598	
11.6834	-1.4375	30.1487	4.9939	0.0253296	0.000305176	0.0109863	13.5013	-0.14509	31.4067	0.549616	12.6872	0.814137	0.00267334	0.00217285	0.814137	
9.33801	-2.1875	29.9042	4.99207	0.027771	0.00213623	0.038147	13.4834	-0.166389	31.3836	0.549213	12.6903	0.793085	0.00262451	0.00372314	0.793085	
14.6368	-0.59375	30.2869	4.97894	0.0238037	0.00244141	-0.0253296	13.4647	-0.187835	31.3606	0.54881	12.6934	0.771273	0.00263672	0.000268555	0.771273	
13.4641	0.375	30.3932	4.98505	0.0234985	0.00213623	0.00274658	13.4464	-0.208881	31.3376	0.548409	12.6965	0.749851	0.00264893	0.000524902	0.749851	
12.9429	-9.28125	30.2869	4.98444	0.0241089	0.0012207	0.0289917	13.4288	-0.230478	31.3149	0.54801	12.6996	0.729207	0.00253906	0.00161133	0.729207	
12.6389	-0.5	30.2976	4.98444	0.0268555	0.00274658	-0.0109863	13.4116	-0.254077	31.2923	0.547615	12.7027	0.708935	0.00253906	1.2207E-005	0.708935	
13.0732	-0.53125	29.8404	4.99084	0.0247192	0.00335693	0.017395	13.3946	-0.278372	31.2698	0.547221	12.7057	0.688913	0.00253906	0.000500488	0.688913	
12.0743	-1.15625	32.2325	4.98535	0.0241089	0.0012207	0.0332642	13.3778	-0.302067	31.2476	0.546834	12.7087	0.669111	0.00245361	0.00150146	0.669111	
10.8582	-0.65625	30.2869	4.98749	0.0234985	0.00335693	0.0119019	13.3608	-0.32529	31.2262	0.546459	12.7116	0.649151	0.00252686	0.00223389	0.649151	
11.5531	-0.59375	30.3932	4.98688	0.0234985	0.00457764	-0.00274658	13.3431	-0.347976	31.2052	0.546092	12.7145	0.628598	0.00266113	0.00384521	0.628598	
22.9759	-0.15625	30.3294	4.97803	0.0247192	0.00152588	0.0012207	13.3265	-0.369963	31.1845	0.545729	12.7173	0.609246	0.00257568	0.00471191	0.609246	
14.0722	0.6875	30.6484	4.98047	0.0256348	0.00274658	-0.00427246	13.3134	-0.390987	31.164	0.54537	12.72	0.593342	0.00266113	0.00449219	0.593342	
12.0743	-0.65625	30.053	4.9884	0.0241089	0.00366211	0.0137329	13.3023	-0.410947	31.1438	0.545016	12.7228	0.579475	0.00269775	0.0048584	0.579475	
10.9885	-1.46875	29.9255	4.98566	0.0265503	0.00183105	0.0515747	13.2909	-0.43028	31.1236	0.544663	12.7255	0.565392	0.00256348	0.0052124	0.565392	
12.248	-1.3125	29.6916	4.98566	0.0256348	0.00213623	-0.00854492	13.2789	-0.449431	31.1034	0.54431	12.7282	0.550635	0.00255127	0.00410156	0.550635	
12.6389	-0.90625	29.968	4.98749	0.0216675	0.00305176	-0.00701904	13.2665	-0.468411	31.0831	0.543955	12.731	0.535513	0.00256348	0.00439453	0.535513	
12.4217	-1.53125	30.0956	4.98474	0.0250244	-0.000305176	-0.0341797	13.254	-0.487159	31.0628	0.543599	12.7337	0.52034	0.00240479	0.00218506	0.52034	
10.4673	-0.375	30.1912	4.98444	0.0241089	0.00183105	0.00823975	13.2412	-0.505625	31.0426	0.543246	12.7364	0.504831	0.00233154	0.00272217	0.504831	
8.46936	-1.0625	30.0956	4.98474	0.0241089	0.00457764	-0.0189209	13.2272	-0.52365	31.0226	0.542895	12.7391	0.488062	0.0024292	0.00247803	0.488062	
12.248	-2	30.0318	4.98413	0.0259399	0.00274658	-0.00854492	13.2115	-0.541419	31.0027	0.542547	12.7418	0.469747	0.00238037	0.000439453	0.469747	
11.3793	-8.90625	30.0318	4.9826	0.0259399	0.00183105	0.0244141	13.1951	-0.560399	30.9829	0.5422	12.7444	0.450675	0.00239258	0.00186768	0.450675	
11.5531	-1.96875	29.851	4.98596	0.0259399	0.00366211	0.0125122	13.1783	-0.581747	30.9631	0.541855	12.7471	0.431222	0.00240479	0.00167236	0.431222	
12.6823	-1.09375	29.8723	4.97742	0.0247192	0.00152588	-0.020752	13.1612	-0.604151	30.9434	0.54151	12.7497	0.411501	0.00231934	0.0012085	0.411501	
13.3338	0.53125	32.6684	4.97467	0.0222778	0.00152588	-0.00274658	13.1444	-0.62596	30.9242	0.541173	12.7523	0.392067	0.00231934	0.00313721	0.392067	
13.9853	0.53125	30.3294	4.97772	0.0253296	0.00213623	0.0152588	13.1282	-0.646542	30.9059	0.540852	12.7548	0.37347	0.00231934	0.00505371	0.37347	
11.2925	-0.03125	30.3294	4.97711	0.0256348	0.00274658	-0.0140381	13.1127	-0.665761	30.8882	0.540544	12.7571	0.355536	0.00241699	0.00405273	0.355536	
19.7618	0.34375	30.2763	4.97559	0.0234985	0.00274658	0.0323486	13.0983	-0.68377	30.8708	0.540239	12.7595	0.338785	0.00244141	0.0038208	0.338785	
12.9864	0.75	30.2231	4.97681	0.0265503	0.00366211	0.00976563	13.0861	-0.700507	30.8537	0.539939	12.7618	0.324341	0.00249023	0.00522461	0.324341	
12.8126	-0.71875	30.0956	4.97955	0.0247192	0.000305176	-0.0222778	13.0754	-0.71605	30.8367	0.539642	12.764	0.311311	0.00241699	0.00422363	0.311311	
12.9429	-0.5	30.3082	4.97528	0.0198364	0.00152588	-0.0131226	13.0649	-0.730791	30.8199	0.539349	12.7663	0.298566	0.0024292	0.00253906	0.298566	
13.4207	0.5625	29.8404	4.97253	0.0222778	0.00274658	-0.0378418	13.0547	-0.744742	30.8033	0.539058	12.7685	0.28619	0.0024292	0.00146484	0.28619	
13.4207	0.21875	31.988	4.96796	0.0253296	0.000305176	-0.0650024	13.045	-0.757613	30.7871	0.538774	12.7707	0.274374	0.00230713	-0.00183105	0.274374	
12.9429	-0.46875	30.2125	4.97528	0.0256348	-0.0012207	0.00213623	13.0359	-0.769482	30.7716	0.538503	12.7727	0.263149	0.00220947	-0.00307617	0.263149	
8.77339	-1.40625	29.9042	4.9826	0.0247192	0.00335693	0.045166	13.0264	-0.780789	30.7565	0.538238	12.7748	0.25167	0.00220947	-0.00174561	0.25167	
15.8963	-0.625	29.8191	4.97772	0.0234985	0.00213623	0.00701904	13.0164	-0.791822	30.7414	0.537975	12.7768	0.23964	0.00211182	-0.00135498	0.23964	
12.0743	-0.6875	30.0743	4.97528	0.0250244	0.00152588	-0.00457764	13.0068	-0.802498	30.7264	0.537711	12.7788	0.228051	0.00211182	-0.00158691	0.228051	
12.1611	-5.53125	30.0211	4.97711	0.0234985	0.00183105	-0.0338745	12.9976	-0.81347	30.7114	0.537449	12.7808	0.216834	0.0020752	-0.002771	0.216834	
12.0743	-0.375	30.1274	4.97467	0.0238037	0.00183105	-0.032959	12.9882	-0.825437	30.6965	0.537189	12.7828	0.205411	0.00200195	-0.00463867	0.205411	
12.248	-0.96875	29.6916	4.97833	0.0265503	0.00274658	-0.0186157	12.9785	-0.837597	30.6817	0.53693	12.7847	0.193802	0.00203857	-0.00744629	0.193802	
12.1177	-1.125	30.9248	4.97711	0.0271606	0.00396729	-0.00213623	12.9687	-0.849347	30.6671	0.536675	12.7867	0.182051	0.00211182	-0.00718994	0.182051	
11.7702	-1.40625	29.8829	4.97742	0.0241089	0.00305176	0.0344849	12.9587	-0.860877	30.6528	0.536424	12.7886	0.170125	0.00211182	-0.00552979	0.170125	
10.5541	-0.90625	29.851	4.97772	0.0247192	0.00274658	0.0198364	12.9482	-0.872221	30.6387	0.536177	12.7905	0.1577	0.00223389	-0.00336914	0.1577	
12.7692	-0.53125	30.2125	4.96124	0.0231934	0.00335693	0.00366211	12.937	-0.883209	30.6246	0.535931	12.7923	0.1447	0.00229492	-0.00355225	0.1447	
14.2025	1.4375	30.3932	4.96857	0.0259399	0.00213623	0.0448608	12.9261	-0.893348	30.6108	0.535689	12.7942	0.131891	0.00219727	-0.00100098	0.131891	
12.6389	-0.59375	30.255	4.97101	0.0228882	0.00213623	0.0222778	12.9158	-0.902308	30.5972	0.535452	12.796	0.119833	0.00217285	0.000231934	0.119833	
13.2904	-0.125	30.372	4.97284	0.0256348	0.00274658	-0.0308228	12.9061	-0.910374	30.584	0.53522	12.7977	0.108346	0.00220947	-0.00197754	0.108346	
13.0298	-0.3125	30.0318	4.97437	0.0256348	0.00152588	0.00152588	12.8968	-0.917774	30.571	0.534992	12.7995	0.097331	0.00212402	-0.00241699	0.097331	
12.6389	-0.46875	30.4783	4.97223	0.0238037	0.00213623	-0.00701904	12.8879	-0.924535	30.5582	0.534769	12.8011	0.0867352	0.00214844	-0.00186768	0.0867352	
13.2904	-0.78125	30.053	4.97345	0.022583	0.000915527	0.0186157	12.8793	-0.930801	30.5457	0.534551	12.8028	0.0764927	0.00212402	-0.00101318	0.0764927	
10.5107	-0.5625	29.9999	4.96948	0.0259399	0.00152588	-0.0341797	12.8707	-0.936672	30.5334	0.534335	12.8044	0.0662984	0.00209961	-0.00299072	0.0662984	
14.1156	0.34375	30.372	4.97284	0.0234985	0.00335693	-0.027771	12.862	-0.942	30.5213	0.534123	12.806	0.0559515	0.00212402	-0.00354004	0.0559515	
14.3762	1.03125	30.1593	4.9649	0.0231934	0.00305176	0.00366211	12.8538	-0.946378	30.5094	0.533915	12.8076	0.0462013	0.00213623	-0.0046875	0.0462013	
11.7268	-9.75	30.0211	4.97284	0.0259399	0.000915527	0.0201416	12.8464	-0.951155	30.4977	0.53371	12.8092	0.0372582	0.00202637	-0.00427246	0.0372582	
11.249	-0.875	29.7766	4.97711	0.0250244	0.00274658	0.0460815	12.8389	-0.958176	30.4861	0.533507	12.8107	0.0282287	0.00212402	-0.00153809	0.0282287	
12.4217	-0.75	29.8617	4.9762	0.0259399	0.00457764	-0.0149536	12.831	-0.966258	30.4746	0.533305	12.8122	0.0187329	0.00224609	-0.00161133	0.0187329	
11.7702	-0.40625	32.1581	4.97681	0.0253296	0.0012207	-0.0186157	12.8227	-0.97389	30.4633	0.533109	12.8137	0.00902732	0.00218506	-0.000842285	0.00902732	
12.3349	-0.90625	30.053	4.97681	0.0234985	0.00366211	-0.0164795	12.8143	-0.981033	30.4529	0.532926	12.8151	-0.000754541	0.00231934	0.00109863	0.000754541	
11.5096	-1.4375	30.0956	4.97375	0.0250244	0.00366211	-0.0170898	12.8057	-0.987885	30.4429	0.532751	12.8164	-0.0106963	0.00251465	0.00032959	0.0106963	
22.0638	-0.28125	29.8085	4.9707	0.0256348	0.0012207	-0.00213623	12.7984	-0.994516	30.433	0.532577	12.8177	-0.0193646	0.0024292	-0.0015625	0.0193646	
11.8137	-0.15625	30.0424	4.97284	0.0241089	0.00213623	0.0216675	12.7938	-1.00063	30.4231	0.532404	12.819	-0.0252481	0.0024292	-0.000976563	0.0252481	
12.1177	-1.125	29.7553	4.97711	0.0247192	0.00213623	0.0134277	12.7904	-1.00618	30.4133	0.532232	12.8203	-0.0299384	0.00245361	-0.000256348	0.0299384	
10.9885	-0.96875	29.7766	4.98169	0.0265503	0.00213623	0.0158691	12.7865	-1.01143	30.4034	0.532059	12.8216	-0.035152	0.00246582	0.0017334	0.035152	
12.3783	-0.53125	29.6916	4.97467	0.0247192	0.00152588	-0.0125122	12.782	-1.01643	30.3935	0.531886	12.823	-0.0409618	0.00245361	0.00255127	0.0409618	
14.159	0.25	29.2025	4.97101	0.022583	0.00305176	-0.0253296	12.7775	-1.0209	30.3834	0.531709	12.8243	-0.0468239	0.00246582	0.00228271	0.0468239	
13.3772	0.125	30.1593	4.97467	0.0250244	0	-0.00701904	12.7735	-1.02457	30.3732	0.53153	12.8256	-0.0520882	0.00230713	0.0020874	0.0520882	
9.94607	-0.28125	30.1806	4.97467	0.0256348	0.00274658	0.0247192	12.7697	-1.02744	30.363	0.531353	12.827	-0.0572413	0.00229492	0.00169678	0.0572413	
7.38354	0.0625	30.1593	4.98169	0.0228882	0.00427246	0.0158691	12.7644	-1.02963	30.3531	0.531179	12.8283	-0.0638475	0.00235596	0.00153809	0.0638475	
11.9005	-1.59375	30.457	4.97711	0.0247192	0.00274658	-0.0146484	12.7571	-1.03138	30.3434	0.53101	12.8296	-0.0724728	0.00233154	0.000805664	0.0724728	
12.1611	-7.21875	30.2019	4.97345	0.0247192	0.00213623	-0.0216675	12.7488	-1.03402	30.3341	0.530847	12.8308	-0.0819906	0.00233154	-0.00185547	0.0819906	
12.7692	-0.34375	30.2125	4.97711	0.0244141	0.00518799	0.0198364	12.7405	-1.03848	30.3251	0.530689	12.832	-0.0914917	0.00245361	-0.00195313	0.0914917	
12.8995	0.21875	30.1168	4.97437	0.0231934	0.00213623	0.0137329	12.7324	-1.04333	30.3163	0.530535	12.8331	-0.100728	0.0024292	-0.000170898	0.100728	
13.7681	0.375	32.275	4.96979	0.0256348	0.00213623	0.0100708	12.7248	-1.04729	30.308	0.53039	12.8342	-0.109394	0.00245361	0.000170898	0.109394	
12.3783	-0.90625	29.968	4.9762	0.0253296	0.00213623	0.00274658	12.7178	-1.05045	30.3005	0.530259	12.8352	-0.117391	0.00245361	0.000561523	0.117391	
8.68652	-1.78125	29.9255	4.98749	0.0247192	0.00274658	-0.00701904	12.7105	-1.05334	30.2935	0.530136	12.8361	-0.125656	0.00252686	-0.000463867	0.125656	
16.6781	-0.375	29.6916	4.98505	0.0241089	0.00305176	-0.0152588	12.7027	-1.05624	30.2864	0.530012	12.8371	-0.134352	0.00258789	0.000292969	0.134352	
11.5965	0.5625	30.0211	4.98413	0.0265503	0.00396729	-0.0143433	12.6957	-1.05868	30.2793	0.529888	12.838	-0.142342	0.0026123	0.000830078	0.142342	
11.6399	-1.21875	30.053	4.98291	0.0256348	0.00213623	-0.0320435	12.689	-1.06046	30.2723	0.529765	12.8389	-0.149966	0.00257568	-0.000598145	0.149966	
11.6399	-0.65625	30.17	4.98322	0.0238037	0.00274658	-0.00518799	12.6818	-1.0619	30.2653	0.529643	12.8398	-0.157998	0.00264893	-0.00161133	0.157998	
12.2046	-0.03125	29.3726	4.98047	0.0231934	0.00457764	0.00701904	12.6744	-1.06304	30.2584	0.529523	12.8407	-0.166335	0.00272217	-0.00317383	0.166335	
11.249	-1	31.3926	4.98444	0.027771	0.00335693	0.0460815	12.6667	-1.06374	30.2517	0.529404	12.8416	-0.174923	0.00267334	-0.000732422	0.174923	
11.1188	-1.09375	29.8617	4.98566	0.0253296	0	-0.0149536	12.6585	-1.06424	30.2453	0.529293	12.8425	-0.183942	0.00262451	-0.000585937	0.183942	
8.59966	-0.8125	29.7341	4.98474	0.0262451	0.00457764	0.0262451	12.6493	-1.06468	30.2391	0.529185	12.8433	-0.193974	0.00266113	0.00112305	0.193974	
14.9408	-0.625	30.3082	4.97528	0.0271606	0.00396729	0.0259399	12.6393	-1.06497	30.233	0.529077	12.8441	-0.204822	0.00267334	0.00284424	0.204822	
13.4207	0.15625	30.7334	4.97894	0.0250244	0.00335693	0.00396729	12.6298	-1.06488	30.2271	0.528973	12.8449	-0.215078	0.00275879	0.00308838	0.215078	
12.5955	-4.375	30.3507	4.98322	0.0234985	0.00396729	-0.0286865	12.6212	-1.06486	30.2215	0.528877	12.8456	-0.224353	0.00283203	0.00107422	0.224353	
12.3783	-0.625	30.2231	4.98505	0.0241089	0.00152588	-0.0140381	12.6131	-1.06562	30.2163	0.528786	12.8463	-0.23321	0.00280762	-2.44141E-005	0.23321	
12.0743	-0.6875	29.9892	4.98505	0.0241089	0.00335693	-0.0106812	12.605	-1.06666	30.2113	0.528697	12.8469	-0.241918	0.00285645	-0.00108643	0.241918	
12.0743	-0.28125	31.18	4.98566	0.0241089	0.00305176	-0.0222778	12.597	-1.06736	30.2065	0.528614	12.8476	-0.250594	0.00291748	-0.00147705	0.250594	
12.3349	-0.59375	30.053	4.98352	0.0241089	0.00366211	0.00335693	12.5889	-1.06766	30.2021	0.528537	12.8482	-0.259218	0.00294189	-0.00032959	0.259218	
12.0308	-0.15625	30.372	4.98566	0.0222778	0.00213623	-0.00274658	12.5809	-1.06753	30.198	0.528466	12.8487	-0.267769	0.00302734	-0.000158691	0.267769	
15.2448	0.40625	30.5633	4.97925	0.0247192	0.00396729	-0.027771	12.5734	-1.06683	30.1942	0.528398	12.8492	-0.275805	0.00307617	-0.0022583	0.275805	
13.0732	0.375	30.4783	4.98535	0.0250244	0.0012207	-0.0161743	12.5669	-1.06533	30.1906	0.528336	12.8497	-0.282713	0.0029541	-0.00354004	0.282713	
12.0308	-1.28125	30.17	4.98962	0.0247192	0.00274658	-0.0164795	12.5612	-1.06324	30.1874	0.528279	12.8501	-0.288872	0.0029541	-0.00361328	0.288872	
10.7279	-1.5	29.9042	4.99298	0.0247192	0.00457764	0.00396729	12.5553	-1.06113	30.1842	0.528224	12.8505	-0.295186	0.00305176	-0.00258789	0.295186	
11.1188	-1.34375	29.6597	4.99451	0.0265503	0.00152588	0.0228882	12.5487	-1.05932	30.181	0.528168	12.8509	-0.302173	0.00290527	-0.00246582	0.302173	
11.3359	-0.875	30.8079	4.99054	0.0231934	0.00335693	0.00701904	12.5415	-1.05769	30.1778	0.528111	12.8513	-0.309845	0.0029541	-0.00273437	0.309845	
12.2046	-1.28125	30.1168	4.99146	0.0238037	0.000305176	-0.017395	12.5339	-1.05614	30.1748	0.528059	12.8517	-0.317882	0.00288086	-0.00383301	0.317882	
9.38145	-1.0625	30.1912	4.99298	0.0247192	0.00213623	-0.0164795	12.5257	-1.05469	30.172	0.52801	12.8521	-0.326404	0.00288086	-0.00460205	0.326404	
11.1622	-0.15625	30.2444	4.99176	0.0253296	0.00213623	0.0216675	12.5166	-1.05319	30.1693	0.527962	12.8525	-0.335865	0.00285645	-0.00345459	0.335865	
11.3793	0.0625	30.1168	4.99023	0.0216675	0.00396729	0.00976563	12.5067	-1.05129	30.1667	0.527917	12.8528	-0.346076	0.00289307	-0.00245361	0.346076	
10.8582	-10.5938	29.9148	4.99573	0.0259399	0.000610352	-0.0106812	12.4964	-1.05046	30.1642	0.527873	12.8531	-0.35675	0.00275879	-0.00230713	0.35675	
10.5541	-1.59375	30.1912	4.99298	0.0256348	0.00152588	0.0109863	12.4854	-1.05252	30.1616	0.527828	12.8535	-0.368045	0.00273437	-0.000585937	0.368045	
12.8995	-0.8125	30.0956	4.99146	0.0247192	0.00427246	0.00396729	12.4741	-1.05613	30.1591	0.527785	12.8538	-0.379737	0.00279541	-0.000219727	0.379737	
12.7692	-0.28125	32.7747	4.98901	0.0234985	0.00213623	-0.00579834	12.463	-1.05949	30.1571	0.52775	12.8541	-0.391091	0.00269775	-0.000732422	0.391091	
12.2914	-0.59375	30.4251	4.99115	0.0222778	0.00213623	0.00183105	12.4524	-1.06239	30.156	0.527731	12.8542	-0.401801	0.00264893	-0.00250244	0.401801	
11.9005	-0.53125	30.2657	4.99237	0.0256348	0.00396729	0.00610352	12.4421	-1.06484	30.1555	0.527721	12.8543	-0.412157	0.00280762	-0.00166016	0.412157	
21.4991	-0.34375	30.1593	4.98535	0.0253296	0.00152588	0.00274658	12.4334	-1.06685	30.155	0.527713	12.8543	-0.420927	0.00268555	-0.0026001	0.420927	
12.4217	0.78125	30.1274	4.9939	0.0231934	0.00274658	-0.0125122	12.4277	-1.06819	30.1546	0.527706	12.8544	-0.426661	0.00263672	-0.00413818	0.426661	
12.4217	-0.96875	30.1487	4.9881	0.0256348	0.00488281	0.00732422	12.4236	-1.06879	30.1542	0.527699	12.8544	-0.430791	0.00269775	-0.00400391	0.430791	
12.2914	-0.625	30.3082	4.98932	0.0259399	0.00152588	0.00518799	12.4197	-1.06898	30.1538	0.527692	12.8545	-0.434796	0.0026001	-0.00264893	0.434796	
13.1167	-0.28125	30.0318	4.98932	0.020752	0.00274658	-0.00762939	12.4159	-1.06889	30.1535	0.527686	12.8545	-0.438588	0.00264893	-0.00239258	0.438588	
13.3338	0.28125	30.2231	4.9881	0.0241089	0.00305176	-0.0198364	12.4127	-1.06828	30.1532	0.52768	12.8546	-0.441908	0.00263672	-0.00275879	0.441908	
11.8571	-0.65625	30.0743	4.99054	0.0271606	-0.000305176	-0.0167847	12.4098	-1.06708	30.1528	0.527675	12.8546	-0.444805	0.00250244	-0.00253906	0.444805	
8.1219	-1.59375	29.8298	4.9942	0.0259399	0.00213623	0.017395	12.4064	-1.06567	30.1525	0.527668	12.8547	-0.448302	0.00244141	-0.00197754	0.448302	
6.68862	-1.46875	30.0743	5.00122	0.0241089	0.00457764	0.0241089	12.4007	-1.06448	30.152	0.527659	12.8547	-0.453995	0.00253906	-0.00090332	0.453995	
11.4228	-2.3125	30.053	4.99176	0.0241089	0.0012207	0.0296021	12.3927	-1.06372	30.1514	0.527649	12.8548	-0.462088	0.0024292	0.0013916	0.462088	
11.9005	-9.78125	30.2019	4.99084	0.0247192	0.00305176	0.0259399	12.3837	-1.0648	30.1508	0.527639	12.8549	-0.471166	0.00250244	0.00307617	0.471166	
12.0308	-1.15625	30.2231	4.99176	0.0253296	0.00457764	0.00244141	12.3747	-1.06875	30.1503	0.52763	12.855	-0.48028	0.00257568	0.00383301	0.48028	
12.0743	-0.9375	29.8191	4.98932	0.0247192	0.00213623	-0.00701904	12.3657	-1.07392	30.1497	0.52762	12.855	-0.489304	0.00247803	0.00339355	0.489304	
11.8137	-1.59375	31.988	4.99298	0.0283813	0.00152588	-0.00518799	12.3569	-1.07896	30.1494	0.527614	12.8551	-0.498216	0.00247803	0.00227051	0.498216	
12.0308	-1.59375	29.9467	4.9942	0.0259399	0.00213623	0.0219727	12.348	-1.08404	30.1495	0.527617	12.855	-0.507016	0.0024292	0.00286865	0.507016	
9.46831	-1.71875	29.7979	4.99512	0.0241089	0.00152588	-0.0436401	12.3389	-1.08928	30.1499	0.527623	12.855	-0.516114	0.00247803	0.00181885	0.516114	
18.2417	0	30.1806	4.98993	0.0238037	0.00213623	-0.0149536	12.33	-1.09445	30.1501	0.527626	12.855	-0.524936	0.00247803	0.00187988	0.524936	
13.5075	1.40625	30.3932	4.98413	0.0244141	0.00427246	0.0115967	12.3231	-1.0988	30.1502	0.527629	12.855	-0.531877	0.00256348	0.00147705	0.531877	
13.1601	-0.90625	30.3613	4.98657	0.0256348	0.00152588	0.0338745	12.3178	-1.10202	30.1505	0.527634	12.8549	-0.537145	0.00246582	0.00244141	0.537145	
13.0298	-0.5625	30.3401	4.98566	0.0256348	0.00335693	-0.00762939	12.3132	-1.1046	30.1509	0.52764	12.8549	-0.541656	0.00257568	0.00256348	0.541656	
12.4217	-0.65625	29.8829	4.98749	0.0234985	0.00366211	0.0344849	12.3092	-1.10681	30.1513	0.527648	12.8548	-0.545632	0.00266113	0.00350342	0.545632	
12.6823	-0.46875	31.5521	4.9881	0.0250244	0.00244141	0.0216675	12.3055	-1.10863	30.1519	0.527658	12.8547	-0.549243	0.00258789	0.00421143	0.549243	
12.5955	-0.3125	30.0211	4.98871	0.0238037	-0.000915527	-0.000915527	12.3021	-1.10999	30.1528	0.527674	12.8546	-0.552499	0.00246582	0.00440674	0.552499	
10.4673	0	30.0743	4.98688	0.0216675	0.00457764	0.000610352	12.2987	-1.11079	30.1539	0.527693	12.8545	-0.555754	0.00256348	0.00435791	0.555754	
18.676	-0.15625	30.5102	4.98108	0.0259399	0.0012207	-0.0369263	12.2959	-1.11094	30.1549	0.527711	12.8543	-0.558428	0.00245361	0.00263672	0.558428	
13.4641	0.15625	30.3082	4.97681	0.0241089	0.00274658	-0.0222778	12.2951	-1.11042	30.156	0.527731	12.8542	-0.559115	0.00250244	0.00163574	0.559115	
12.0743	-7.28125	30.0424	4.98566	0.0253296	0.00366211	0.0247192	12.2956	-1.11033	30.1572	0.527751	12.854	-0.558448	0.00253906	0.003125	0.558448	
11.4228	-2.375	29.8617	4.98962	0.0259399	0.0012207	0.00823975	12.2961	-1.11216	30.1583	0.52777	12.8539	-0.557835	0.00239258	0.00316162	0.557835	
12.2046	-1.34375	29.8191	4.9826	0.0256348	0.00213623	0.0088501	12.2962	-1.11531	30.1591	0.527785	12.8538	-0.557584	0.00241699	0.00330811	0.557584	
12.3349	-0.84375	31.3182	4.98688	0.0247192	0.00366211	-0.0131226	12.2962	-1.11858	30.16	0.5278	12.8537	-0.557496	0.00245361	0.00308838	0.557496	
12.3783	-0.84375	30.1593	4.98444	0.0256348	0.00366211	-0.0274658	12.2962	-1.12164	30.1612	0.52782	12.8535	-0.557361	0.00247803	0.0027832	0.557361	
11.1188	-0.34375	30.1062	4.98199	0.0231934	0.00152588	0.0204468	12.296	-1.12434	30.1624	0.527842	12.8534	-0.557359	0.00255127	0.00427246	0.557359	
16.1135	-0.6875	29.8829	4.98199	0.0259399	0.00335693	0.0259399	12.2961	-1.1266	30.1636	0.527863	12.8532	-0.557126	0.0026001	0.00461426	0.557126	
11.9874	-0.84375	29.9999	4.9823	0.0265503	0.0012207	0.00152588	12.2971	-1.12847	30.1646	0.52788	12.8531	-0.555963	0.00246582	0.00371094	0.555963	
11.4228	-1.125	29.9467	4.98199	0.0234985	0.00335693	0.0115967	12.2985	-1.13012	30.1654	0.527895	12.853	-0.554496	0.00255127	0.00299072	0.554496	
11.2056	-1.53125	29.9892	4.98566	0.027771	0.00335693	-0.00640869	12.2993	-1.13173	30.1661	0.527907	12.8529	-0.553587	0.00256348	0.00169678	0.553587	
12.8995	-0.78125	29.8191	4.97681	0.0241089	0.00213623	0.00305176	12.2997	-1.13336	30.1666	0.527916	12.8528	-0.55311	0.00246582	0.00172119	0.55311	
13.5944	0.71875	31.2012	4.97223	0.0213623	0.00244141	-0.017395	12.3003	-1.13459	30.1672	0.527926	12.8527	-0.552429	0.00247803	0.00130615	0.552429	
13.9419	0.5	30.372	4.97589	0.0234985	0.0012207	-0.0112915	12.3016	-1.13489	30.168	0.52794	12.8526	-0.550984	0.00246582	0.00106201	0.550984	
11.4228	-0.21875	30.2019	4.97284	0.0268555	0.00152588	0.0259399	12.3035	-1.13425	30.169	0.527958	12.8525	-0.548986	0.00244141	0.0012207	0.548986	
14.9843	-0.46875	29.8829	4.97986	0.0244141	0.0012207	-0.00854492	12.3057	-1.13299	30.17	0.527975	12.8524	-0.546661	0.0024292	0.00262451	0.546661	
13.0732	-0.3125	30.255	4.97925	0.0234985	0.00274658	-0.000610352	12.3086	-1.13129	30.1708	0.52799	12.8523	-0.543613	0.00245361	0.00319824	0.543613	
12.6389	-9.5	30.0956	4.97833	0.0231934	0.000305176	0.00854492	12.3122	-1.1306	30.1717	0.528004	12.8521	-0.539972	0.00229492	0.00307617	0.539972	
13.0732	-0.625	30.2976	4.97528	0.0234985	0.00213623	-0.0259399	12.3159	-1.13233	30.1724	0.528018	12.852	-0.53612	0.00231934	0.000683594	0.53612	
13.7247	0.3125	30.0211	4.97192	0.0238037	0.00457764	0.0476074	12.32	-1.13491	30.1732	0.528031	12.8519	-0.531898	0.00236816	0.00289307	0.531898	
13.6378	0.03125	32.4983	4.96887	0.0234985	0.00183105	-0.010376	12.3248	-1.13669	30.1743	0.52805	12.8518	-0.527023	0.00229492	0.00109863	0.527023	
12.552	-0.78125	30.053	4.97589	0.0265503	0.00518799	0.0228882	12.33	-1.13776	30.176	0.52808	12.8516	-0.521569	0.00240479	0.00114746	0.521569	
10.1632	-1.78125	29.9892	4.97711	0.0259399	0.00396729	-0.00946045	12.335	-1.13861	30.1779	0.528114	12.8513	-0.516332	0.0026001	0.000805664	0.516332	
21.9769	-0.84375	29.9467	4.97284	0.0222778	0.00152588	-0.0119019	12.3407	-1.13952	30.1797	0.528145	12.8511	-0.510436	0.00247803	0.000305176	0.510436	
12.3783	0.0625	30.2231	4.9765	0.0228882	0.00274658	0.00396729	12.3488	-1.14023	30.1813	0.528173	12.8509	-0.502101	0.00253906	0.00194092	0.502101	
12.7258	-0.78125	29.968	4.9765	0.0238037	0.00366211	0.00213623	12.3582	-1.14043	30.1828	0.528199	12.8507	-0.492503	0.00257568	0.00291748	0.492503	
12.4217	-0.65625	30.1062	4.97467	0.0259399	0.0012207	-0.0131226	12.3674	-1.14026	30.1842	0.528223	12.8505	-0.483123	0.00247803	0.00140381	0.483123	
12.248	-0.78125	29.5852	4.97528	0.0238037	0.00183105	-0.0265503	12.3763	-1.13983	30.1853	0.528243	12.8504	-0.474036	0.00250244	1.2207E-005	0.474036	
11.9874	-0.8125	30.3932	4.97467	0.0247192	0.00335693	0.0314331	12.3848	-1.13918	30.1863	0.52826	12.8502	-0.465381	0.00255127	0.000915527	0.465381	
11.5965	-1.0625	29.8404	4.9762	0.0265503	0.00152588	0.0210571	12.3928	-1.13838	30.1871	0.528275	12.8501	-0.457306	0.00246582	0.00228271	0.457306	
8.94712	-1.0625	29.9892	4.97833	0.0241089	0.00274658	-0.00183105	12.3997	-1.13752	30.1879	0.528287	12.85	-0.450372	0.0024292	0.00330811	0.450372	
10.337	0	30.0743	4.97437	0.0234985	0.00366211	-0.0271606	12.4047	-1.13648	30.1884	0.528297	12.8499	-0.445213	0.00251465	0.00140381	0.445213	
13.6378	-1.09375	30.2869	4.96857	0.0265503	0.00183105	0.0375366	12.4087	-1.13511	30.1889	0.528306	12.8499	-0.441228	0.00245361	0.00186768	0.441228	
13.3338	-8.96875	30.2019	4.96735	0.0247192	0.00213623	0.0112915	12.4126	-1.13481	30.1894	0.528314	12.8498	-0.437177	0.00249023	0.0022583	0.437177	
13.0298	-0.28125	30.1912	4.97223	0.0241089	0.00305176	0.000305176	12.4171	-1.13681	30.1899	0.528323	12.8498	-0.432693	0.00247803	0.00180664	0.432693	
12.6823	-0.71875	29.7128	4.97223	0.0253296	0.00183105	0.0253296	12.4217	-1.13963	30.1903	0.528329	12.8497	-0.428002	0.00241699	0.00307617	0.428002	
12.6823	-0.125	32.5727	4.9704	0.0241089	0.00274658	0.00213623	12.4264	-1.14193	30.1909	0.52834	12.8496	-0.423229	0.00244141	0.00303955	0.423229	
13.551	-0.34375	30.053	4.97711	0.0247192	0.00366211	-0.0134277	12.4312	-1.14365	30.1921	0.528361	12.8495	-0.418245	0.00249023	0.00319824	0.418245	
11.2056	0.21875	30.1381	4.97101	0.0238037	0.0012207	-0.0100708	12.4361	-1.14468	30.1936	0.528388	12.8493	-0.413198	0.00249023	0.00324707	0.413198	
22.0638	0.78125	30.2869	4.96552	0.0222778	0.00305176	-0.0100708	12.442	-1.14484	30.195	0.528413	12.8491	-0.407045	0.00255127	0.00180664	0.407045	
13.7247	1.71875	30.5102	4.96521	0.0256348	0.00305176	-0.0494385	12.4508	-1.14373	30.1964	0.528438	12.8489	-0.398105	0.00262451	0.000170898	0.398105	
11.9005	-0.875	29.9786	4.97498	0.0256348	0.00152588	-0.0198364	12.461	-1.14144	30.1979	0.528464	12.8487	-0.387665	0.00257568	-0.000598145	0.387665	
10.945	-1.53125	29.7979	4.97711	0.0241089	0.00213623	0.00701904	12.4707	-1.13876	30.1993	0.528487	12.8485	-0.377814	0.00264893	-0.00065918	0.377814	
12.0743	-1.21875	29.362	4.9762	0.0234985	0.00335693	0.0390625	12.4794	-1.13626	30.2003	0.528504	12.8484	-0.368969	0.00269775	0.00194092	0.368969	
11.5531	-1.09375	31.9454	4.97772	0.0253296	0.00213623	0.000305176	12.4873	-1.13394	30.2012	0.52852	12.8483	-0.360946	0.0026001	4.88281E-005	0.360946	
12.4217	-0.53125	29.8829	4.97772	0.0241089	0.00244141	-0.020752	12.4946	-1.1316	30.2024	0.528542	12.8481	-0.353521	0.00262451	-0.000366211	0.353521	
10.5107	-1.09375	30.1487	4.97467	0.0231934	0.00366211	0.0250244	12.5011	-1.12914	30.2038	0.528566	12.8479	-0.346809	0.00256348	-0.000280762	0.346809	
19.8921	-0.15625	29.9573	4.98901	0.0259399	0.00213623	0.0112915	12.5079	-1.12652	30.205	0.528587	12.8478	-0.33983	0.00249023	0.000549316	0.33983	
11.7268	-1.53125	29.9892	4.97772	0.0271606	0.00274658	0.0216675	12.5164	-1.12375	30.206	0.528606	12.8476	-0.331249	0.00253906	0.00189209	0.331249	
11.5531	-8.625	29.8191	4.97955	0.0231934	0.00274658	0.00213623	12.5253	-1.12221	30.2069	0.52862	12.8475	-0.32224	0.00253906	0.00181885	0.32224	
10.945	-1.09375	29.7979	4.98138	0.0256348	0.00274658	0.0411987	12.5332	-1.12311	30.2075	0.528631	12.8474	-0.314245	0.00250244	0.00338135	0.314245	
12.9864	0.03125	29.9892	4.97742	0.0244141	0.00366211	0.00518799	12.5403	-1.12496	30.2078	0.528637	12.8474	-0.307133	0.0026001	0.00411377	0.307133	
13.6378	0.375	32.3707	4.96979	0.0244141	0.00366211	-0.0366211	12.5471	-1.12614	30.2084	0.528647	12.8473	-0.300181	0.00267334	0.00371094	0.300181	
12.8561	-0.125	30.3082	4.97559	0.0234985	0.00488281	-0.00457764	12.5542	-1.12649	30.2096	0.528668	12.8472	-0.292932	0.00273437	0.00227051	0.292932	
10.8582	-0.28125	30.2763	4.97772	0.0244141	0.00152588	-0.0134277	12.5611	-1.12614	30.2111	0.528694	12.847	-0.285887	0.00273437	0.000891113	0.285887	
20.1527	-0.1875	30.2231	4.97589	0.0256348	0.00396729	-0.00518799	12.5684	-1.12525	30.2126	0.52872	12.8468	-0.278389	0.0027832	0.000756836	0.278389	
12.0743	-0.96875	30.2869	4.98077	0.0247192	0.00152588	-0.0231934	12.5774	-1.12394	30.2141	0.528746	12.8466	-0.269138	0.00269775	0.000915527	0.269138	
12.5086	-0.53125	29.9892	4.97711	0.0234985	0.00213623	-0.0106812	12.5872	-1.12239	30.2155	0.528771	12.8464	-0.259203	0.00270996	-0.00101318	0.259203	
12.9864	0.09375	30.2657	4.97528	0.0253296	0.00427246	-0.0238037	12.5966	-1.1205	30.2168	0.528794	12.8462	-0.249664	0.00279541	-0.00241699	0.249664	
13.0298	0.09375	30.2444	4.97772	0.0247192	0.00213623	-0.00976563	12.6058	-1.11802	30.218	0.528816	12.8461	-0.240286	0.00275879	-0.00281982	0.240286	
13.1167	0.46875	32.073	4.97559	0.0222778	0.00152588	0.00762939	12.6149	-1.11482	30.2195	0.528842	12.8459	-0.230925	0.00274658	-0.00352783	0.230925	
12.248	-0.53125	30.0318	4.98199	0.0247192	0.0012207	-0.00366211	12.6239	-1.11096	30.2216	0.528877	12.8456	-0.221656	0.00268555	-0.00375977	0.221656	
9.81577	-1.625	29.7766	4.98596	0.0265503	0.00152588	0.00579834	12.6322	-1.10688	30.2236	0.528914	12.8453	-0.213165	0.0026001	-0.00299072	0.213165	
17.7205	-0.8125	30.1274	4.99054	0.0256348	0.00213623	0.00335693	12.6399	-1.10298	30.2255	0.528946	12.8451	-0.205139	0.00263672	-0.00245361	0.205139	
11.7702	-0.96875	30.1062	4.98627	0.0244141	0.00335693	0.0149536	12.6485	-1.09918	30.2271	0.528975	12.8449	-0.196406	0.00264893	-0.00145264	0.196406	
11.6399	-5.84375	29.7341	4.98657	0.027771	0.00213623	0.0137329	12.657	-1.09617	30.2286	0.529001	12.8447	-0.187637	0.0026123	0.00107422	0.187637	
12.0743	-0.53125	30.2231	4.98383	0.0244141	0.00183105	-0.00274658	12.6648	-1.09462	30.2299	0.529022	12.8445	-0.17974	0.00262451	0.00175781	0.17974	
12.1177	-0.5625	29.8617	4.98505	0.0247192	0.00305176	0.0314331	12.6718	-1.09361	30.2309	0.529041	12.8444	-0.172564	0.00266113	0.00273437	0.172564	
11.4662	-1.46875	32.2325	4.98901	0.0253296	0.00213623	0.020752	12.6781	-1.09244	30.2321	0.529062	12.8442	-0.166065	0.0026123	0.00200195	0.166065	
10.9885	-1.53125	29.8829	4.98627	0.0259399	0.00701904	0.0119019	12.6835	-1.09142	30.2338	0.529092	12.844	-0.160451	0.00280762	0.00246582	0.160451	
9.77234	-1.15625	29.9467	4.99023	0.0253296	0.00396729	0.00610352	12.6876	-1.09064	30.2356	0.529123	12.8437	-0.156179	0.00286865	0.00354004	0.156179	
21.3688	0.40625	30.2231	4.9881	0.0234985	0.00274658	0.000305176	12.6916	-1.08974	30.2372	0.529151	12.8435	-0.151897	0.00283203	0.00255127	0.151897	
13.2035	0.53125	30.4889	4.97955	0.0231934	0.00274658	-0.06073	12.6979	-1.08816	30.2387	0.529177	12.8433	-0.145447	0.00285645	-0.00032959	0.145447	
12.6389	0.25	30.0743	4.98474	0.0247192	0.00366211	0.00213623	12.7054	-1.0857	30.2402	0.529204	12.8431	-0.137722	0.00289307	-0.00111084	0.137722	
12.0743	-0.59375	30.4251	4.98718	0.0256348	0.00213623	0.0088501	12.7126	-1.08258	30.2417	0.52923	12.843	-0.130306	0.00286865	-0.000842285	0.130306	
12.248	-0.375	30.1062	4.98627	0.0250244	0.00152588	-0.0549316	12.7193	-1.07911	30.2431	0.529255	12.8428	-0.12343	0.00281982	-0.0046875	0.12343	
11.944	-0.6875	31.3926	4.98749	0.0234985	0.00396729	-0.0170898	12.7254	-1.0754	30.2447	0.529282	12.8426	-0.117139	0.00283203	-0.00557861	0.117139	
12.6389	-0.71875	30.1274	4.98718	0.0259399	0.00183105	-0.0228882	12.731	-1.07153	30.2465	0.529313	12.8423	-0.111356	0.00275879	-0.0050293	0.111356	
11.8137	-0.375	30.3613	4.98749	0.0222778	0.00366211	0.0271606	12.736	-1.06753	30.2484	0.529347	12.8421	-0.106047	0.00270996	-0.00375977	0.106047	
16.3741	0.15625	30.4145	4.98444	0.0222778	0.00457764	0.039978	12.7412	-1.0632	30.2503	0.529379	12.8418	-0.100654	0.00283203	-0.00162354	0.100654	
12.9429	-1.71875	30.9354	4.98657	0.0247192	0.00213623	0.0372314	12.7472	-1.05864	30.2522	0.529414	12.8416	-0.0944127	0.00275879	7.32422E-005	0.0944127	
11.4662	-9.46875	29.7341	4.99176	0.0244141	0.00274658	-0.00488281	12.7533	-1.05557	30.2543	0.52945	12.8413	-0.0879437	0.00280762	0.000805664	0.0879437	
11.0753	-1.5	29.8617	4.9939	0.0228882	0.00457764	0.0445557	12.7587	-1.05538	30.2562	0.529483	12.841	-0.0823463	0.00290527	0.00301514	0.0823463	
11.3359	-1.34375	29.7128	4.99146	0.0244141	0.00152588	-0.0604248	12.7629	-1.05669	30.2577	0.52951	12.8408	-0.0779258	0.00279541	0.00155029	0.0779258	
11.6399	-1.21875	32.1581	4.9942	0.0256348	0.00244141	-0.0106812	12.7661	-1.05813	30.2593	0.529537	12.8406	-0.0745301	0.00280762	0.00151367	0.0745301	
12.0743	-0.59375	30.2444	4.99176	0.0244141	0.00518799	0.0292969	12.7685	-1.05955	30.2613	0.529572	12.8404	-0.0718655	0.0029541	0.00238037	0.0718655	
10.1632	-1.4375	30.6697	4.99451	0.0244141	0.00183105	-0.0146484	12.77	-1.06085	30.2635	0.529612	12.8401	-0.0700424	0.00297852	0.00194092	0.0700424	
21.282	-0.75	30.255	4.98749	0.022583	0.00213623	-0.015564	12.7719	-1.06211	30.2659	0.529652	12.8398	-0.0678632	0.00300293	0.00108643	0.0678632	
11.6399	-0.125	30.2444	4.99542	0.0262451	0.00457764	0.0335693	12.7758	-1.06314	30.2681	0.529693	12.8395	-0.0636924	0.00310059	0.00229492	0.0636924	
10.945	-1.375	29.9786	4.99634	0.0256348	0.0012207	-0.0100708	12.7802	-1.06384	30.2703	0.52973	12.8392	-0.0589911	0.00301514	0.00129395	0.0589911	
10.4238	-1.4375	29.9999	4.9942	0.0234985	0.00274658	0.0088501	12.7833	-1.06452	30.2722	0.529764	12.8389	-0.0555839	0.00303955	0.00109863	0.0555839	
12.6389	-0.09375	29.9573	4.99023	0.0259399	0.00427246	-0.0131226	12.7854	-1.0652	30.2739	0.529794	12.8387	-0.053359	0.00313721	0.000683594	0.053359	
13.2035	0.125	32.5833	4.98505	0.0259399	0.00213623	0.0167847	12.7869	-1.06542	30.2758	0.529827	12.8385	-0.0515302	0.00310059	9.76563E-005	0.0515302	
12.8126	-0.03125	30.4889	4.98901	0.0201416	0.00213623	-0.0292969	12.7886	-1.06495	30.2783	0.52987	12.8381	-0.0495628	0.00310059	-0.0019043	0.0495628	
10.9016	-0.625	30.3294	4.9881	0.0244141	0.00396729	0.0167847	12.7899	-1.06393	30.2811	0.52992	12.8378	-0.0478283	0.00297852	-0.00170898	0.0478283	
21.7163	-0.53125	30.3082	4.99542	0.0259399	0.000915527	-0.015564	12.7921	-1.06257	30.2839	0.529969	12.8374	-0.0453451	0.00285645	-0.00257568	0.0453451	
11.9874	-1.875	30.3507	4.9942	0.0250244	0.00244141	0.0143433	12.7964	-1.06114	30.2866	0.530016	12.837	-0.0405944	0.00284424	-0.00201416	0.0405944	
12.3783	-10.4063	30.3294	4.99176	0.0234985	0.0012207	-0.0393677	12.8018	-1.06138	30.2893	0.530062	12.8367	-0.0349376	0.0027832	-0.00115967	0.0349376	
12.6823	-0.28125	30.4145	4.99176	0.020752	0.00213623	0.0100708	12.8066	-1.06453	30.2919	0.530108	12.8363	-0.0297491	0.00272217	-0.000842285	0.0297491	
13.4641	-0.21875	30.4464	4.98901	0.0256348	0.00396729	0.039978	12.8113	-1.06863	30.2945	0.530153	12.836	-0.0247359	0.00279541	0.000402832	0.0247359	
13.551	-0.09375	31.7541	4.98718	0.0256348	0.00152588	-0.0216675	12.8161	-1.07206	30.2972	0.530202	12.8356	-0.0195619	0.00279541	0.0017334	0.0195619	
11.1188	-1.375	30.0211	4.99298	0.0247192	0.00488281	0.0375366	12.8208	-1.07498	30.3003	0.530256	12.8352	-0.0144464	0.00283203	0.00391846	0.0144464	
11.2056	-2.09375	29.851	4.99023	0.0265503	0.00152588	0.0112915	12.8247	-1.07789	30.3034	0.53031	12.8348	-0.0101659	0.00281982	0.00528564	0.0101659	
21.6294	-1.1875	30.1274	4.99481	0.0241089	0.00152588	0.00396729	12.829	-1.08108	30.3062	0.530358	12.8345	-0.00546372	0.00273437	0.00435791	0.00546372	
11.7268	-1.375	30.2019	4.99176	0.0210571	0.00183105	0.0289917	12.8355	-1.0844	30.3087	0.530402	12.8341	0.00136343	0.00262451	0.00391846	0.00136343	
12.1177	1.875	30.053	4.99176	0.0241089	0.000305176	-0.00213623	12.8427	-1.08724	30.311	0.530443	12.8338	0.00884786	0.00255127	0.00234375	0.00884786	
12.6389	-0.84375	30.1274	4.99237	0.0250244	0.00274658	0.0143433	12.8492	-1.08908	30.3131	0.53048	12.8335	0.0156247	0.00255127	0.00311279	0.0156247	
11.7268	-0.53125	30.1381	4.97559	0.0271606	0.00152588	-0.0167847	12.8551	-1.09023	30.3151	0.530514	12.8333	0.0217955	0.0024292	0.00065918	0.0217955	
12.6823	-1.34375	32.2218	4.99176	0.0259399	0.00366211	0.0228882	12.8604	-1.09116	30.3171	0.53055	12.833	0.0273683	0.00251465	0.0039917	0.0273683	
11.5096	-1.625	29.9042	4.9942	0.0247192	0.00274658	0.0280762	12.8651	-1.09214	30.3196	0.530593	12.8327	0.0323715	0.00252686	0.00554199	0.0323715	
12.0743	-2.03125	29.9892	4.99298	0.0265503	0.00305176	0.00762939	12.869	-1.09343	30.3221	0.530638	12.8324	0.0366436	0.00244141	0.00467529	0.0366436	
18.4589	-0.3125	30.2444	4.99664	0.0241089	0.00366211	-0.00579834	12.8732	-1.09493	30.3244	0.530677	12.8321	0.0411525	0.00251465	0.0050293	0.0411525	
13.8116	0.3125	29.2663	4.98077	0.0222778	0.00366211	0.0012207	12.879	-1.09606	30.3263	0.530711	12.8318	0.047227	0.00257568	0.00570068	0.047227	
13.2904	-8.46875	30.2869	4.98444	0.0271606	0.00274658	-0.0210571	12.8859	-1.09774	30.3279	0.530737	12.8316	0.0542624	0.00250244	0.00351563	0.0542624	
12.9864	-0.8125	30.1593	4.98566	0.0289917	0.00183105	0.000305176	12.8928	-1.10138	30.3291	0.53076	12.8314	0.06131	0.00252686	0.00393066	0.06131	
12.6389	-0.71875	30.1381	4.98566	0.0222778	0.00152588	0.0247192	12.8994	-1.1059	30.3302	0.530779	12.8313	0.0681512	0.00247803	0.00456543	0.0681512	
12.6823	-1.0625	31.9454	4.98322	0.0244141	0.00152588	0.00762939	12.9058	-1.11008	30.3315	0.530801	12.8311	0.074674	0.00236816	0.00539551	0.074674	
19.0669	-0.84375	30.2019	4.99329	0.0256348	0.00457764	-0.0418091	12.9128	-1.11399	30.3332	0.53083	12.8309	0.0818736	0.00246582	0.00305176	0.0818736	
11.1622	-0.28125	30.457	4.98169	0.0234985	0.00213623	-0.0378418	12.9211	-1.11755	30.335	0.530862	12.8307	0.0904541	0.00246582	0.00270996	0.0904541	
21.4557	-0.125	30.457	4.98352	0.0253296	0.00213623	-0.0253296	12.9309	-1.12053	30.3368	0.530894	12.8304	0.100472	0.00239258	0.00102539	0.100472	
13.551	-0.28125	30.5102	4.97894	0.0231934	0.00213623	0.00579834	12.9428	-1.12284	30.3386	0.530926	12.8302	0.112617	0.00244141	0.00187988	0.112617	
12.0308	3.625	30.0318	4.98291	0.0271606	0.0012207	0.00183105	12.9557	-1.12391	30.3404	0.530957	12.83	0.12571	0.00239258	0.00137939	0.12571	
11.1622	-1.125	29.7766	4.9939	0.0259399	0.00152588	0.0112915	12.9676	-1.12334	30.342	0.530984	12.8298	0.137852	0.00240479	0.00340576	0.137852	
12.0743	-1.34375	29.8191	4.98688	0.0241089	0.00152588	-0.0189209	12.9783	-1.12209	30.3432	0.531006	12.8296	0.148685	0.00238037	0.00224609	0.148685	
12.3349	-0.96875	31.8178	4.98322	0.0256348	0.00305176	0.038147	12.9879	-1.12093	30.3443	0.531025	12.8294	0.158475	0.00234375	0.00217285	0.158475	
12.5955	-0.84375	30.0743	4.98444	0.0253296	0.00274658	-0.0106812	12.9968	-1.11975	30.3457	0.531051	12.8293	0.167562	0.00239258	0.0026123	0.167562	
11.5096	-0.78125	30.053	4.98047	0.0228882	0.000915527	0.0375366	13.0049	-1.11845	30.3472	0.531077	12.8291	0.175887	0.00223389	0.0026123	0.175887	
20.4568	-0.34375	30.053	4.99054	0.0234985	0.00213623	0.0149536	13.0134	-1.11694	30.3485	0.531098	12.8289	0.184526	0.0022583	0.00275879	0.184526	
11.944	-2.46875	30.1168	4.97955	0.027771	0.00152588	0.0234985	13.0235	-1.11539	30.3495	0.531117	12.8288	0.19475	0.0022583	0.00354004	0.19475	
12.0308	-4.84375	29.9467	4.98199	0.0256348	0.00152588	0.0115967	13.0339	-1.11477	30.3503	0.531131	12.8286	0.205258	0.00224609	0.00284424	0.205258	
11.3359	-1.09375	29.6916	4.98566	0.0234985	0.00335693	-0.0234985	13.0432	-1.11554	30.3509	0.53114	12.8286	0.214621	0.00236816	0.00198975	0.214621	
12.8126	-0.125	30.255	4.97467	0.022583	0.00183105	0.00335693	13.0514	-1.1167	30.3511	0.531144	12.8285	0.222897	0.00233154	0.00155029	0.222897	
13.6378	0.3125	32.3282	4.97223	0.0244141	0.00183105	0.00732422	13.0592	-1.11729	30.3515	0.531151	12.8285	0.230657	0.00234375	0.00251465	0.230657	
13.6378	0.15625	30.4677	4.97589	0.0250244	0.00640869	0.0332642	13.0668	-1.11706	30.3525	0.531168	12.8284	0.238459	0.00245361	0.00292969	0.238459	
12.248	-0.3125	30.2231	4.9762	0.0247192	0.00152588	0.0158691	13.0744	-1.1161	30.3538	0.531191	12.8282	0.24617	0.00240479	0.00244141	0.24617	
22.1506	-0.28125	30.1381	4.97833	0.0259399	0.0012207	0.0247192	13.0829	-1.11459	30.3549	0.531212	12.828	0.254843	0.00233154	0.003125	0.254843	
12.0743	0.71875	30.1593	4.99023	0.0222778	0.00152588	-0.00488281	13.0936	-1.11247	30.356	0.531229	12.8279	0.265725	0.00224609	0.00316162	0.265725	
12.5955	4.96875	30.2976	4.9762	0.0210571	0.0012207	-0.00640869	13.105	-1.10878	30.3569	0.531245	12.8278	0.277225	0.00214844	0.00285645	0.277225	
13.5075	0.21875	30.2231	4.97345	0.0216675	0.00366211	-0.0366211	13.1157	-1.10285	30.3576	0.531259	12.8277	0.288059	0.00218506	0.00223389	0.288059	
13.551	0.5	30.7015	4.97192	0.0253296	0.00213623	0.000305176	13.1262	-1.09553	30.3584	0.531272	12.8276	0.298623	0.00219727	0.00223389	0.298623	
13.7247	0.6875	32.6684	4.96857	0.0247192	0.00152588	-0.00396729	13.1366	-1.08748	30.3596	0.531292	12.8274	0.30916	0.00219727	0.00108643	0.30916	
12.1177	-1.71875	30.0211	4.98138	0.0271606	0.00396729	0.0241089	13.1467	-1.07901	30.3614	0.531325	12.8272	0.319513	0.00229492	0.00174561	0.319513	
12.8126	-1.1875	29.8829	4.97894	0.0274658	0.00213623	0.015564	13.1562	-1.07079	30.3634	0.531359	12.8269	0.329246	0.00219727	0.00404053	0.329246	
21.7597	-0.78125	30.0211	4.98413	0.0259399	0.00213623	0.00274658	13.1664	-1.06294	30.365	0.531388	12.8267	0.339673	0.00219727	0.00566406	0.339673	
12.6389	-2.375	29.9892	4.97589	0.0228882	0.00152588	-0.0485229	13.1788	-1.0555	30.3664	0.531411	12.8265	0.352234	0.00217285	0.00473633	0.352234	
12.5955	-2.03125	30.1912	4.97162	0.0231934	0.00152588	0.0152588	13.1918	-1.04884	30.3675	0.531431	12.8264	0.365403	0.00214844	0.00511475	0.365403	
12.552	0.1875	27.14	4.99481	0.0256348	0.00366211	-0.0100708	13.204	-1.04273	30.3679	0.531438	12.8263	0.377662	0.00224609	0.00463867	0.377662	
12.5955	-0.3125	30.1487	4.97467	0.0247192	0.00396729	0.00793457	13.2154	-1.03649	30.3673	0.531427	12.8264	0.38896	0.00234375	0.00450439	0.38896	
12.4652	-1.03125	31.0524	4.97467	0.0241089	0.00152588	-0.0247192	13.2259	-1.03006	30.3662	0.531409	12.8266	0.399392	0.00234375	0.00427246	0.399392	
11.7268	-1.34375	29.9148	4.97437	0.0234985	0.00549316	-0.00549316	13.2356	-1.02378	30.3653	0.531392	12.8267	0.408907	0.00244141	0.00252686	0.408907	
10.5107	-0.71875	29.7447	4.97833	0.0234985	0.00244141	0.0180054	13.2439	-1.01778	30.3643	0.531374	12.8268	0.417062	0.0024292	0.00367432	0.417062	
12.4652	1.125	30.1593	4.97406	0.0228882	0.00427246	-0.00823975	13.2507	-1.01162	30.363	0.531352	12.827	0.42369	0.00256348	0.00184326	0.42369	
14.2025	0.4375	30.5421	4.96643	0.0219727	0.00396729	0.00488281	13.2567	-1.00473	30.3616	0.531328	12.8272	0.429547	0.00263672	0.00144043	0.429547	
12.9864	5.65625	30.1062	4.96948	0.0234985	0.00274658	-0.0088501	13.2627	-0.996278	30.3603	0.531305	12.8273	0.435327	0.00268555	0.000146484	0.435327	
12.7692	-0.21875	30.2231	4.97192	0.0259399	0.00152588	-0.0390625	13.2684	-0.985711	30.3589	0.531281	12.8275	0.440879	0.00268555	-0.00187988	0.440879	
12.7692	-0.28125	30.2444	4.97223	0.0247192	0.00183105	0.00946045	13.2736	-0.974136	30.3575	0.531256	12.8277	0.445948	0.00262451	-0.000561523	0.445948	
12.1177	-1.125	30.2444	4.98657	0.0250244	0.00305176	0.0210571	13.2783	-0.962656	30.3561	0.531231	12.8279	0.450416	0.00267334	0.000146484	0.450416	
12.3783	-0.28125	30.0318	4.97528	0.0259399	0.00274658	-0.0192261	13.2822	-0.951416	30.3546	0.531205	12.8281	0.454135	0.00270996	-0.000915527	0.454135	
13.7247	0.0625	30.372	4.96979	0.0234985	0.00183105	0.00671387	13.2856	-0.94023	30.353	0.531178	12.8283	0.457317	0.00252686	-0.00197754	0.457317	
18.5023	0.46875	30.255	4.97284	0.0234985	0.00457764	-0.00610352	13.2897	-0.928803	30.3515	0.531151	12.8285	0.461185	0.00264893	-0.00285645	0.461185	
13.9853	-0.78125	30.372	4.9649	0.0234985	0.00305176	-0.0341797	13.2954	-0.917164	30.3499	0.531124	12.8287	0.466708	0.00272217	-0.0052124	0.466708	
11.2056	-1.15625	29.9042	4.97925	0.0241089	0.00152588	-0.000915527	13.3016	-0.905712	30.3484	0.531097	12.8289	0.472726	0.00272217	-0.00505371	0.472726	
11.0319	-1.375	29.6278	4.98138	0.0265503	0.00183105	-0.000915527	13.3067	-0.894791	30.3466	0.531066	12.8291	0.477604	0.00274658	-0.00483398	0.477604	
11.6399	-0.59375	30.0424	4.97772	0.0234985	0.00335693	-0.00579834	13.3104	-0.884394	30.3446	0.531031	12.8294	0.480977	0.00273437	-0.00360107	0.480977	
11.7702	-0.65625	30.3932	4.97772	0.0241089	0.00213623	0.0396729	13.3128	-0.874311	30.3425	0.530993	12.8297	0.483095	0.00273437	-0.00202637	0.483095	
11.5965	-0.71875	29.9148	4.97772	0.0256348	0.00427246	0.0442505	13.3141	-0.864445	30.3403	0.530956	12.83	0.484122	0.00284424	-9.76563E-005	0.484122	
12.2046	-0.5625	30.0956	4.9881	0.0238037	0.00335693	0.0125122	13.3144	-0.854799	30.3381	0.530916	12.8303	0.484147	0.00281982	-0.000561523	0.484147	
20.3265	-0.15625	30.1168	4.9765	0.0234985	0.00152588	-0.0109863	13.3152	-0.84527	30.3357	0.530875	12.8306	0.484625	0.00279541	-0.00162354	0.484625	
11.9005	-1.21875	30.0318	4.97437	0.0280762	0.00274658	0.0271606	13.3177	-0.835874	30.3333	0.530833	12.8309	0.486851	0.00281982	-0.000646973	0.486851	
11.2925	4.03125	29.7872	4.98199	0.0265503	0.00427246	-0.00457764	13.3205	-0.826064	30.3307	0.530788	12.8312	0.489304	0.00292969	0.00111084	0.489304	
11.1188	-0.875	29.7447	4.97894	0.0247192	0.00274658	-0.0109863	13.322	-0.815158	30.328	0.53074	12.8316	0.49044	0.00297852	6.10352E-005	0.49044	
13.0298	-0.40625	29.8617	4.98077	0.0241089	0.00366211	-0.032959	13.3224	-0.803836	30.325	0.530687	12.832	0.490448	0.00297852	-0.000854492	0.490448	
12.8126	0.375	31.9242	4.97131	0.0241089	0.00274658	-0.00701904	13.3223	-0.792614	30.3221	0.530636	12.8324	0.489945	0.00292969	-0.00145264	0.489945	
12.7692	-0.03125	30.0211	4.98016	0.0244141	0.00335693	-0.0393677	13.3219	-0.781244	30.3197	0.530594	12.8327	0.489221	0.00300293	-0.00203857	0.489221	
13.3772	-0.53125	30.1487	4.97742	0.0244141	0.0012207	0.0198364	13.3213	-0.76982	30.3175	0.530556	12.833	0.488298	0.00283203	-0.00102539	0.488298	
21.282	-0.4375	30.1168	4.98444	0.0253296	0.00183105	0.00640869	13.3218	-0.758555	30.3152	0.530517	12.8333	0.488556	0.00280762	-0.00148926	0.488556	
15.6357	-0.5	30.2019	4.99542	0.0234985	0.00427246	0.045166	13.3252	-0.747509	30.313	0.530477	12.8336	0.491629	0.00280762	0.000646973	0.491629	
12.6389	4.96875	30.2019	4.98169	0.0259399	0.00274658	0.0671387	13.3303	-0.735836	30.3107	0.530437	12.8339	0.496429	0.00275879	0.00313721	0.496429	
12.4217	-0.125	30.2019	4.97772	0.0228882	0.0012207	-0.017395	13.3352	-0.722669	30.3084	0.530397	12.8342	0.501055	0.00269775	0.00279541	0.501055	
13.3338	0.1875	30.5421	4.98047	0.0234985	0.00427246	-0.0100708	13.3396	-0.708753	30.3062	0.530359	12.8345	0.505125	0.00280762	0.00395508	0.505125	
13.7247	0.8125	32.1155	4.97192	0.0241089	0.00335693	-0.00213623	13.3437	-0.694718	30.3044	0.530328	12.8347	0.509014	0.00286865	0.00349121	0.509014	
12.1177	-0.84375	30.1806	4.99176	0.0253296	0.00213623	-0.0149536	13.3476	-0.680592	30.3033	0.530308	12.8348	0.51277	0.00283203	0.00205078	0.51277	
11.0319	-1.53125	29.7128	4.98596	0.0247192	0.00152588	0.0289917	13.3507	-0.66691	30.3024	0.530291	12.835	0.515731	0.0027832	0.00397949	0.515731	
13.1167	-1.15625	30.0956	4.99146	0.0256348	0.00213623	-0.00396729	13.3527	-0.654077	30.3012	0.530271	12.8351	0.517612	0.00279541	0.00355225	0.517612	
11.5965	-2	30.1381	4.98566	0.0241089	0.00396729	-0.0109863	13.354	-0.642193	30.2999	0.530249	12.8353	0.518697	0.002771	0.00335693	0.518697	
11.944	5.4375	30.0211	4.98322	0.0228882	0.00244141	0.0167847	13.3544	-0.630283	30.2985	0.530225	12.8355	0.518927	0.00274658	0.00539551	0.518927	
12.8126	-0.21875	29.9467	4.98077	0.0244141	0.00518799	0.0753784	13.354	-0.617054	30.2971	0.530198	12.8357	0.518333	0.00289307	0.00844727	0.518333	
12.3783	-0.6875	30.4358	4.98199	0.0256348	0.00152588	0.00213623	13.3531	-0.603235	30.2955	0.530171	12.8359	0.517204	0.00288086	0.00856934	0.517204	
11.2925	-1.03125	31.8285	4.9826	0.0259399	0.00274658	0.0228882	13.3515	-0.589931	30.2942	0.530149	12.836	0.515439	0.00285645	0.0097168	0.515439	
11.2925	-1.6875	29.8723	4.98993	0.0250244	0.00396729	-0.0088501	13.3488	-0.577414	30.2934	0.530134	12.8361	0.512683	0.00292969	0.00777588	0.512683	
11.8137	-1.1875	29.9892	4.98871	0.0234985	0.00213623	-0.0222778	13.3451	-0.565845	30.2927	0.530122	12.8362	0.508836	0.00284424	0.00511475	0.508836	
23.0193	-0.1875	30.1487	4.98566	0.0244141	0.00457764	0.00366211	13.3422	-0.554987	30.2918	0.530107	12.8364	0.505806	0.00289307	0.00476074	0.505806	
12.7692	-0.59375	30.4677	4.98199	0.0241089	0.00213623	-0.0424194	13.342	-0.544499	30.2909	0.530091	12.8365	0.505551	0.00291748	0.00350342	0.505551	
12.3349	3.125	30.4889	4.98627	0.0222778	0.00335693	0.0662231	13.3431	-0.533767	30.2901	0.530076	12.8366	0.50648	0.00294189	0.00506592	0.50648	
12.4652	-0.21875	30.0956	4.98688	0.0268555	0.00427246	0.00274658	13.3435	-0.522236	30.2894	0.530064	12.8367	0.506847	0.00294189	0.00535889	0.506847	
11.9005	-0.65625	30.4677	4.98688	0.0265503	0.0012207	-0.00854492	13.3433	-0.510468	30.2887	0.530051	12.8368	0.506547	0.00288086	0.00545654	0.506547	
12.0743	-0.65625	30.5527	4.9881	0.0210571	0.00335693	-0.00610352	13.3423	-0.499133	30.288	0.530041	12.8369	0.505486	0.00286865	0.00653076	0.505486	
12.248	-0.3125	30.0743	4.98444	0.0244141	0.00640869	0.00701904	13.3406	-0.488239	30.2875	0.530032	12.8369	0.503686	0.00301514	0.00709229	0.503686	
12.9864	-0.03125	30.17	4.98901	0.0247192	-0.000915527	-0.00946045	13.3383	-0.477626	30.287	0.530022	12.837	0.501352	0.00284424	0.00828857	0.501352	
16.3741	-0.03125	30.5314	4.98932	0.0247192	0.00152588	-0.0115967	13.3364	-0.46715	30.2864	0.530013	12.8371	0.499287	0.00285645	0.00703125	0.499287	
13.2035	-0.625	30.5102	4.98413	0.0234985	0.00335693	-0.0305176	13.3353	-0.456861	30.286	0.530005	12.8371	0.498175	0.00291748	0.0055542	0.498175	
11.9005	0.15625	30.0956	4.99115	0.0247192	0.00366211	0.00366211	13.3345	-0.446823	30.2857	0.529999	12.8372	0.49732	0.00289307	0.00389404	0.49732	
10.945	-1.59375	29.8617	4.99481	0.0256348	0.00396729	0.0280762	13.3329	-0.437154	30.2852	0.529992	12.8372	0.495647	0.00294189	0.00233154	0.495647	
11.3359	-0.96875	30.4358	4.99481	0.0247192	0.00152588	-0.0274658	13.33	-0.428171	30.2847	0.529982	12.8373	0.492742	0.0029541	0.00192871	0.492742	
11.6834	-1.21875	29.6278	4.99634	0.0247192	0.00366211	-0.0137329	13.3261	-0.419974	30.284	0.529971	12.8374	0.488678	0.00292969	0.00178223	0.488678	
11.944	-0.71875	30.2019	4.99146	0.0259399	0.00549316	-0.0186157	13.3212	-0.412442	30.2832	0.529956	12.8375	0.483697	0.00301514	0.00112305	0.483697	
12.9864	-0.40625	30.0956	4.97772	0.0259399	0.00549316	0.0332642	13.3157	-0.405393	30.2823	0.52994	12.8376	0.478136	0.00314941	0.00305176	0.478136	
21.8032	-1.1875	30.2019	4.99481	0.0222778	0.00366211	0.0140381	13.3115	-0.39876	30.2813	0.529922	12.8377	0.473761	0.00323486	0.00245361	0.473761	
11.7268	-0.875	29.9999	4.99298	0.0265503	0.00274658	-0.00640869	13.3097	-0.392678	30.2802	0.529904	12.8379	0.471864	0.00325928	0.00235596	0.471864	
10.5976	3.625	29.9467	4.99695	0.0265503	0.00213623	0.0265503	13.3085	-0.386459	30.279	0.529883	12.838	0.470419	0.00318604	0.00385742	0.470419	
10.8582	-1.59375	29.9255	4.99786	0.0265503	0.000305176	-0.032959	13.3057	-0.379475	30.2777	0.52986	12.8382	0.467531	0.00310059	0.00186768	0.467531	
13.3772	5.28125	30.372	4.96857	0.0247192	0.00213623	-0.00396729	13.302	-0.371612	30.2763	0.529835	12.8384	0.463557	0.00297852	-0.00130615	0.463557	
12.8995	-0.28125	29.2025	4.98688	0.0234985	0.00213623	-0.0308228	13.2979	-0.362445	30.2747	0.529807	12.8386	0.459278	0.00300293	-0.00262451	0.459278	
12.3349	-0.03125	30.3932	4.98596	0.0241089	0.00396729	-0.00701904	13.2937	-0.352647	30.2729	0.529776	12.8388	0.454848	0.00305176	-0.0038208	0.454848	
12.5955	-0.65625	30.457	4.98749	0.0256348	0.0012207	0.0143433	13.2892	-0.343126	30.271	0.529743	12.8391	0.450093	0.00294189	-0.00289307	0.450093	
17.8074	-0.59375	30.255	4.99878	0.0228882	0.00213623	-0.0283813	13.2852	-0.334026	30.2693	0.529713	12.8393	0.445851	0.00294189	-0.00313721	0.445851	
12.9429	-0.53125	30.2444	4.97925	0.022583	0.00152588	-0.0253296	13.2825	-0.325405	30.2677	0.529685	12.8395	0.443004	0.00281982	-0.00429688	0.443004	
12.552	5.9375	30.2019	4.98962	0.0250244	0.00366211	-0.0231934	13.2805	-0.316219	30.2661	0.529657	12.8397	0.440736	0.00288086	-0.00352783	0.440736	
12.5955	-0.53125	30.3401	4.99146	0.0186157	0.00274658	0.00518799	13.2781	-0.30548	30.2645	0.52963	12.8399	0.438162	0.00285645	-0.00596924	0.438162	
13.7247	-0.28125	30.5421	4.98627	0.0241089	0.00427246	0.0228882	13.2756	-0.294214	30.2631	0.529604	12.8401	0.43543	0.00285645	-0.00516357	0.43543	
13.3772	0.40625	32.2325	4.98505	0.0234985	0.00335693	0.0241089	13.2732	-0.283265	30.2621	0.529587	12.8403	0.432896	0.00294189	-0.00385742	0.432896	
11.0319	-2.1875	30.0318	4.98993	0.0253296	0.00396729	0.0137329	13.2706	-0.27278	30.2618	0.529581	12.8403	0.430286	0.00296631	-0.00306396	0.430286	
11.8137	-1.03125	30.053	4.9942	0.0247192	0.00335693	0.0119019	13.2672	-0.263267	30.2617	0.529579	12.8403	0.42689	0.00284424	-0.00286865	0.42689	
15.2883	-1.1875	29.968	4.99756	0.0228882	0.00274658	0.0112915	13.2635	-0.254767	30.2614	0.529574	12.8404	0.423109	0.00299072	-0.00203857	0.423109	
11.9874	-1.46875	30.1062	4.99084	0.0253296	0.00213623	0.0326538	13.2601	-0.247162	30.261	0.529567	12.8404	0.419646	0.00301514	-0.000268555	0.419646	
12.1611	2.46875	30.1168	4.99451	0.0247192	0.00366211	0.0689697	13.2565	-0.239926	30.2605	0.529559	12.8405	0.416039	0.00302734	0.00371094	0.416039	
12.1177	-0.46875	30.0743	4.97528	0.0253296	0.00274658	-0.0628662	13.2524	-0.232328	30.2599	0.529549	12.8406	0.41183	0.00299072	0.0010498	0.41183	
12.248	-0.53125	30.3932	4.99054	0.0271606	0.00366211	-0.00762939	13.2477	-0.224697	30.2593	0.529538	12.8406	0.407084	0.00297852	-0.000378418	0.407084	
11.7702	-1.375	28.0649	4.98749	0.0292969	0.00183105	-0.017395	13.2425	-0.217643	30.2584	0.529521	12.8408	0.401746	0.00299072	2.44141E-005	0.401746	
11.4228	-2	29.9892	4.99023	0.0234985	0.00274658	-0.00274658	13.2366	-0.21152	30.2568	0.529494	12.841	0.395608	0.0029541	0.000463867	0.395608	
11.8137	-1.71875	30.0211	4.9939	0.0247192	-0.00457764	-0.03479	13.2298	-0.206581	30.2548	0.529459	12.8412	0.388614	0.00255127	-0.000183105	0.388614	
13.2904	0.21875	30.2019	4.97192	0.0250244	0.00274658	-0.00213623	13.2226	-0.202495	30.2527	0.529423	12.8415	0.381137	0.00244141	-0.00159912	0.381137	
13.551	-0.59375	30.3613	4.98199	0.0241089	0.00366211	-0.00335693	13.2155	-0.198717	30.2507	0.529387	12.8418	0.37377	0.00244141	-0.00229492	0.37377	
12.9429	5.46875	30.2231	4.98413	0.0234985	0.00305176	-0.027771	13.2088	-0.19425	30.2488	0.529354	12.842	0.366737	0.00245361	-0.00314941	0.366737	
12.9864	-0.625	30.2763	4.98352	0.0241089	0.00152588	0.0222778	13.2021	-0.18831	30.2469	0.529322	12.8423	0.359887	0.0024292	-0.00332031	0.359887	
13.0732	-0.71875	30.8398	4.98535	0.0241089	0.00152588	0.00823975	13.1956	-0.181918	30.2453	0.529292	12.8425	0.353162	0.00247803	-0.00167236	0.353162	
13.2904	-0.53125	31.6903	4.98352	0.0247192	0.00305176	0.0228882	13.1893	-0.176038	30.2441	0.529271	12.8426	0.346671	0.00251465	-0.000598145	0.346671	
12.8561	-0.53125	30.3932	4.98535	0.0234985	0.00183105	0.0283813	13.1832	-0.170614	30.2435	0.52926	12.8427	0.340442	0.00250244	0.00177002	0.340442	
14.4196	-0.25	30.1912	4.98566	0.0234985	0.00213623	0.0119019	13.1773	-0.165559	30.2431	0.529255	12.8428	0.334572	0.0024292	0.00252686	0.334572	
8.55623	0.28125	30.4145	4.97437	0.0241089	0.00366211	0.0161743	13.1713	-0.160694	30.2429	0.52925	12.8428	0.328531	0.00252686	0.0026001	0.328531	
13.4641	0.03125	30.3932	4.97589	0.0216675	0.00152588	0.00152588	13.1643	-0.155846	30.2427	0.529247	12.8428	0.321516	0.00250244	0.00379639	0.321516	
11.6834	4.71875	30.1062	4.98291	0.0238037	0.00213623	0.0558472	13.1567	-0.150285	30.2425	0.529244	12.8428	0.313902	0.00252686	0.00704346	0.313902	
11.8137	-1.59375	30.1912	4.98322	0.0247192	0.0012207	-0.00549316	13.1488	-0.143603	30.2424	0.529242	12.8429	0.305932	0.0024292	0.00775146	0.305932	
12.3783	-0.78125	31.6903	4.98077	0.0241089	0.00427246	-0.0125122	13.1404	-0.13695	30.2424	0.529242	12.8429	0.297503	0.00249023	0.00704346	0.297503	
12.1177	-1.03125	27.8629	4.98138	0.0259399	0.00335693	-0.00335693	13.1316	-0.131093	30.2425	0.529244	12.8428	0.288778	0.00245361	0.00599365	0.288778	
12.3783	-0.53125	30.0424	4.97711	0.0231934	0	0.00366211	13.1226	-0.125883	30.2421	0.529236	12.8429	0.279738	0.00231934	0.00517578	0.279738	
13.2904	-0.59375	29.968	4.98077	0.0259399	-0.00457764	0.0460815	13.1136	-0.121194	30.2412	0.529221	12.843	0.27059	0.00197754	0.00646973	0.27059	
12.5955	-0.46875	30.2019	4.98627	0.0247192	0.00213623	-0.00274658	13.1048	-0.116933	30.2402	0.529203	12.8431	0.261606	0.00192871	0.00588379	0.261606	
11.7268	-1.0625	30.053	4.98474	0.0271606	0.00213623	-0.00396729	13.0959	-0.11315	30.2392	0.529185	12.8433	0.252582	0.0019043	0.00527344	0.252582	
11.4662	3.71875	29.8829	4.9823	0.0265503	0.00183105	-0.00579834	13.0865	-0.109255	30.238	0.529166	12.8434	0.243102	0.00189209	0.00373535	0.243102	
11.7702	-1.53125	29.8829	4.98138	0.0253296	0.00396729	0.0088501	13.0766	-0.104677	30.2368	0.529143	12.8436	0.233009	0.0019043	0.00133057	0.233009	
13.1601	-0.53125	30.7334	4.97345	0.0216675	0.00152588	0.0216675	13.0664	-0.100174	30.2354	0.52912	12.8438	0.222616	0.00185547	0.00471191	0.222616	
13.551	0.46875	29.9361	4.9707	0.0247192	0.00366211	0.0140381	13.0564	-0.0960956	30.2342	0.529099	12.8439	0.212495	0.00185547	0.00557861	0.212495	
13.2904	0.71875	32.2431	4.9707	0.0256348	0.00335693	0.0177002	13.047	-0.0919258	30.2333	0.529083	12.844	0.202973	0.0019165	0.00698242	0.202973	
13.5944	-0.46875	30.2019	4.97192	0.0265503	0.0012207	0.0192261	13.0382	-0.0876214	30.2331	0.529079	12.8441	0.194097	0.00185547	0.00786133	0.194097	
14.6368	-0.5	30.3613	4.97742	0.0231934	0.00152588	0.0131226	13.0301	-0.0835246	30.2331	0.529079	12.8441	0.186034	0.00209961	0.00977783	0.186034	
13.1167	-0.53125	30.4783	4.97589	0.0234985	0.00152588	-0.0143433	13.0229	-0.0798293	30.2332	0.529082	12.8441	0.178861	0.00205078	0.00928955	0.178861	
12.8126	5.3125	30.17	4.97772	0.0241089	0.00305176	0.0198364	13.0162	-0.0756317	30.2334	0.529085	12.844	0.172196	0.00202637	0.0102173	0.172196	
13.0298	-0.34375	30.1806	4.97131	0.0241089	0.00335693	-0.0161743	13.0097	-0.070021	30.2337	0.529089	12.844	0.165721	0.00203857	0.0106812	0.165721	
13.4641	0.28125	30.5633	4.97101	0.0222778	0.00274658	-0.020752	13.0035	-0.0638017	30.2339	0.529093	12.844	0.15952	0.0020874	0.00895996	0.15952	
14.1156	0.46875	28.9899	4.96704	0.0231934	0.00396729	-0.0192261	12.9978	-0.0576533	30.234	0.529095	12.844	0.153843	0.00218506	0.00786133	0.153843	
11.9874	-1.21875	30.053	4.97559	0.0265503	0.000305176	-0.0158691	12.9926	-0.0516838	30.2338	0.529091	12.844	0.148579	0.0020752	0.00631104	0.148579	
12.8995	-1.3125	29.8085	4.97589	0.0244141	-0.00579834	0.0430298	12.9874	-0.0463999	30.2332	0.529081	12.8441	0.143305	0.00177002	0.00689697	0.143305	
8.51279	-1.09375	29.9467	4.97772	0.0244141	0.00366211	0.0622559	12.9815	-0.0420377	30.2325	0.529068	12.8442	0.137312	0.00183105	0.00891113	0.137312	
12.0743	-0.875	29.9892	4.97345	0.0247192	0.00274658	-0.00366211	12.9742	-0.0384805	30.2316	0.529052	12.8443	0.129963	0.00179443	0.00811768	0.129963	
12.248	4.65625	30.1062	4.97467	0.0256348	0.00274658	-0.0222778	12.9662	-0.0347425	30.2306	0.529035	12.8444	0.121768	0.00184326	0.00716553	0.121768	
12.3783	-0.5	29.9892	4.97559	0.0228882	0.00366211	0.020752	12.958	-0.029882	30.2295	0.529016	12.8446	0.113393	0.0019043	0.00576172	0.113393	
12.1177	-0.71875	30.3932	4.97589	0.0247192	0.00274658	-0.0296021	12.9496	-0.024717	30.2283	0.528996	12.8447	0.10488	0.00196533	0.00479736	0.10488	
12.4217	-0.625	29.8617	4.97467	0.0265503	0.00274658	-0.00274658	12.9411	-0.0201145	30.2272	0.528976	12.8449	0.09623	0.0019043	0.00518799	0.09623	
11.3793	-1.3125	29.8404	4.97528	0.0253296	0.00518799	-0.00274658	12.9323	-0.0161694	30.226	0.528955	12.845	0.0873317	0.00197754	0.0052124	0.0873317	
12.5955	-1.53125	29.851	4.97467	0.0241089	0.0012207	-0.0271606	12.9233	-0.0130939	30.2246	0.52893	12.8452	0.0781	0.00202637	0.00397949	0.0781	
13.6378	0.21875	30.2657	4.97223	0.0241089	0.00274658	0.00152588	12.9143	-0.0107624	30.223	0.528903	12.8454	0.0689381	0.00231934	0.00219727	0.0689381	
13.6813	0.4375	30.2231	4.96796	0.0244141	0.00274658	-0.0363159	12.906	-0.00860753	30.2215	0.528876	12.8456	0.0603844	0.00234375	0.000854492	0.0603844	
13.4207	5.375	30.2763	4.97192	0.0247192	0.00274658	0.00488281	12.8984	-0.00551894	30.22	0.52885	12.8458	0.0525654	0.00236816	0.0012085	0.0525654	
12.8126	-0.28125	30.2231	4.97223	0.0238037	0.00183105	0.0424194	12.8913	-0.000842719	30.2186	0.528826	12.846	0.0452922	0.00236816	0.00313721	0.0452922	
12.6389	0.15625	30.457	4.97406	0.0265503	0.00335693	-0.00762939	12.8845	0.00444161	30.2173	0.528803	12.8462	0.0382978	0.00234375	0.00247803	0.0382978	
12.3349	-0.46875	28.2563	4.97589	0.0256348	0.00152588	0.0012207	12.8777	0.00947075	30.2158	0.528777	12.8463	0.031345	0.00234375	0.00166016	0.031345	
12.3349	-0.34375	30.1593	4.97192	0.0222778	0.00152588	0.0354004	12.8709	0.0141438	30.2138	0.528742	12.8466	0.0242692	0.0022583	0.00251465	0.0242692	
13.8984	0.0625	30.2444	4.97192	0.022583	-0.00152588	0.0250244	12.8642	0.0184753	30.2116	0.528703	12.8469	0.017309	0.00206299	0.00280762	0.017309	
2.99685	0.125	30.3082	4.97192	0.0256348	0.00213623	-0.0238037	12.8565	0.0226294	30.2094	0.528665	12.8472	0.00930198	0.00209961	0.00108643	0.00930198	
13.3338	0.375	30.372	4.96735	0.0247192	0.00274658	-0.00274658	12.8462	0.0267311	30.2074	0.52863	12.8475	-0.001241	0.00214844	0.00045166	0.001241	
11.9874	5.53125	29.968	4.97711	0.0256348	0.00427246	-0.00854492	12.8348	0.0316668	30.2055	0.528596	12.8477	-0.0129219	0.0022583	0.000683594	0.0129219	
11.0753	-1.53125	29.8404	4.9826	0.0283813	0.00213623	-0.0192261	12.8233	0.0379475	30.2035	0.528562	12.848	-0.0246671	0.00222168	-0.000878906	0.0246671	
12.5955	-0.53125	29.9255	4.97833	0.0289917	0.00396729	-0.017395	12.8115	0.0442858	30.2014	0.528525	12.8482	-0.0367348	0.00224609	-0.000927734	0.0367348	
12.248	-0.71875	29.9148	4.97742	0.0241089	0.00457764	0.0167847	12.7997	0.0498614	30.1992	0.528487	12.8485	-0.0488293	0.00231934	0.00057373	0.0488293	
12.1177	-0.78125	30.0318	4.98169	0.0259399	0.0012207	0.0201416	12.788	0.0547847	30.197	0.528447	12.8488	-0.0608306	0.00220947	0.00214844	0.0608306	
12.552	-0.78125	30.2125	4.97894	0.0247192	0.00244141	0.0204468	12.7764	0.0590269	30.1947	0.528407	12.8491	-0.0727533	0.00229492	0.00360107	0.0727533	
8.46936	-0.71875	30.1274	4.97589	0.0265503	0.000915527	-0.0332642	12.7643	0.0626092	30.1924	0.528368	12.8494	-0.0851036	0.00256348	0.000549316	0.0851036	
11.7268	-6.125	29.8085	4.98199	0.0271606	0.00427246	0.0393677	12.7512	0.0647329	30.1902	0.528328	12.8497	-0.0985593	0.00258789	-0.000366211	0.0985593	
11.2925	4.28125	29.9042	4.98047	0.022583	0.00213623	-0.00518799	12.7372	0.0653945	30.1879	0.528287	12.85	-0.112776	0.00256348	-0.000427246	0.112776	
11.7268	-1.03125	29.8617	4.98657	0.0265503	0.00549316	-0.00335693	12.7231	0.0662106	30.1854	0.528245	12.8503	-0.127284	0.00267334	0.00032959	0.127284	
12.4217	-0.09375	30.3082	4.9765	0.0247192	0.00152588	-0.0268555	12.7088	0.0672868	30.1829	0.528201	12.8507	-0.14188	0.00258789	-0.00157471	0.14188	
13.5944	0.5625	28.6922	4.97284	0.0241089	0.00335693	0.00366211	12.6949	0.0681818	30.1803	0.528155	12.851	-0.156101	0.0026123	-0.000244141	0.156101	
12.3783	-0.21875	30.2763	4.97681	0.0271606	0.000915527	-0.0231934	12.6817	0.0691293	30.1773	0.528103	12.8514	-0.169695	0.00253906	-0.00106201	0.169695	
13.4207	-0.375	30.2019	4.97772	0.0256348	-0.00366211	0.0296021	12.6691	0.0699621	30.1742	0.528049	12.8518	-0.182677	0.00218506	0.000231934	0.182677	
12.3783	-0.21875	30.0211	4.98749	0.0265503	0.00457764	-0.00976563	12.6571	0.0705381	30.1713	0.527997	12.8522	-0.195063	0.00231934	0.000927734	0.195063	
12.5086	-0.9375	30.053	4.97955	0.0222778	0.00488281	-0.00366211	12.6456	0.0707786	30.1683	0.527946	12.8526	-0.207015	0.00240479	0.000720215	0.207015	
12.2046	-3.15625	30.2763	4.98047	0.0259399	0.00274658	-0.0436401	12.6343	0.0701524	30.1655	0.527896	12.853	-0.218707	0.00240479	0.000427246	0.218707	
12.7692	-0.28125	30.372	4.9826	0.0247192	0.00274658	-0.0213623	12.6232	0.068336	30.1628	0.527849	12.8533	-0.230117	0.00240479	-0.000622559	0.230117	
13.551	0.15625	30.5846	4.97772	0.0216675	0.00335693	-0.0253296	12.6127	0.0659879	30.1603	0.527805	12.8536	-0.240984	0.00246582	-0.00333252	0.240984	
13.5944	0.125	29.6809	4.9826	0.0231934	0.00335693	0.00701904	12.6029	0.0637051	30.158	0.527765	12.8539	-0.250993	0.00246582	-0.00274658	0.250993	
11.1622	-1.3125	30.0105	4.98566	0.0271606	0.00274658	0.0430298	12.5938	0.0613219	30.1557	0.527725	12.8542	-0.260434	0.00251465	-0.00107422	0.260434	
21.4557	-1.8125	29.9892	4.99237	0.0268555	0.00335693	-0.0143433	12.5861	0.0583149	30.1533	0.527683	12.8546	-0.268478	0.00258789	-0.00306396	0.268478	
8.77339	-0.84375	30.0318	4.98444	0.0253296	0.00274658	0.0210571	12.5806	0.0544796	30.1509	0.527641	12.8549	-0.274314	0.00275879	-0.00322266	0.274314	
11.4228	-0.5	30.1593	4.99054	0.0253296	0.00152588	-0.0326538	12.5752	0.050124	30.1486	0.5276	12.8552	-0.279938	0.00273437	-0.00357666	0.279938	
11.8137	3.90625	29.968	4.98688	0.0247192	0.00396729	0.0149536	12.569	0.0462093	30.1462	0.527559	12.8555	-0.286437	0.0027832	-0.00286865	0.286437	
11.8571	-0.625	30.2019	4.98718	0.0234985	0.00274658	0.0350952	12.5625	0.0434402	30.1439	0.527519	12.8558	-0.293238	0.00272217	-0.00112305	0.293238	
11.7268	-1.78125	30.17	4.98596	0.0256348	0.00274658	0.0335693	12.5558	0.0408766	30.1417	0.52748	12.8561	-0.300266	0.00274658	0.00098877	0.300266	
11.944	-0.375	28.1181	4.9884	0.0271606	0.00366211	-0.00579834	12.5488	0.0376694	30.1393	0.527438	12.8564	-0.307548	0.00273437	0.00145264	0.307548	
11.2056	-1.78125	29.851	4.99207	0.0271606	0.0012207	0.0244141	12.5416	0.0338816	30.1363	0.527385	12.8568	-0.315187	0.0026001	0.00175781	0.315187	
12.1177	-1.34375	30.0743	4.98993	0.0216675	-0.00366211	-0.00488281	12.534	0.0293858	30.133	0.527327	12.8572	-0.323186	0.00240479	0.000756836	0.323186	
3.9958	0.21875	30.3082	4.98932	0.0234985	0.00427246	0.000610352	12.5251	0.0243694	30.1297	0.52727	12.8576	-0.33257	0.00247803	-3.66211E-005	0.33257	
12.1177	0.65625	30.3932	4.96887	0.0268555	0.00640869	-0.0302124	12.5137	0.0194742	30.1267	0.527217	12.858	-0.344388	0.00269775	8.54492E-005	0.344388	
12.8126	-4.40625	30.0743	4.98688	0.0250244	0.00305176	-0.0289917	12.5012	0.0142919	30.1239	0.527167	12.8584	-0.357177	0.00264893	-0.00264893	0.357177	
12.1611	-0.59375	30.4039	4.98566	0.0256348	0.00152588	-0.00671387	12.4892	0.00792411	30.1212	0.527121	12.8588	-0.369527	0.00262451	-0.00270996	0.369527	
12.3783	-0.75	30.3826	4.99054	0.0241089	0.00396729	0.0292969	12.4776	0.000789598	30.1187	0.527078	12.8591	-0.381498	0.00256348	-0.00140381	0.381498	
12.0308	-0.875	29.1175	4.99023	0.0259399	0.00213623	0.0180054	12.4662	-0.00655683	30.1164	0.527036	12.8594	-0.393204	0.00258789	0.000390625	0.393204	
12.552	-1.3125	30.2869	4.97711	0.0253296	0.00183105	-0.00488281	12.4551	-0.0142341	30.1138	0.526992	12.8597	-0.404668	0.00252686	4.88281E-005	0.404668	
12.2914	-0.5	30.3932	4.9884	0.0228882	0.00274658	-0.0418091	12.4443	-0.0222551	30.1113	0.526947	12.8601	-0.415801	0.0026001	-0.000695801	0.415801	
8.51279	-0.28125	30.457	4.98688	0.0256348	0.00366211	0.0128174	12.4332	-0.0303845	30.109	0.526908	12.8604	-0.427163	0.00289307	-0.00136719	0.427163	
13.4207	0.34375	30.4783	4.98657	0.0247192	0.00305176	0.0112915	12.4214	-0.0383226	30.107	0.526873	12.8606	-0.439187	0.00283203	-0.000524902	0.439187	
11.1188	0.40625	30.0318	4.99237	0.0241089	0.00213623	-0.0198364	12.4096	-0.0458337	30.1053	0.526843	12.8608	-0.451268	0.00272217	-0.00117188	0.451268	
10.9016	-1.78125	29.8723	4.9884	0.0247192	0.00213623	-0.017395	12.3977	-0.053151	30.1036	0.526813	12.8611	-0.463405	0.00269775	-0.00012207	0.463405	
11.249	-1.34375	30.1806	4.99542	0.0265503	0.0012207	0.00946045	12.3853	-0.0608779	30.1019	0.526783	12.8613	-0.475968	0.00263672	0.00111084	0.475968	
11.8571	-1.125	28.0118	4.99542	0.0247192	0.00335693	-0.00701904	12.3727	-0.0691651	30.0999	0.526749	12.8615	-0.488802	0.00263672	0.00184326	0.488802	
11.8137	-1.21875	30.1912	4.9939	0.0250244	0.000305176	0.00671387	12.3602	-0.0778665	30.0974	0.526705	12.8619	-0.501689	0.00251465	0.00183105	0.501689	
12.552	-1.125	30.2125	4.9942	0.0228882	-0.00305176	0.00457764	12.3479	-0.086943	30.0947	0.526657	12.8622	-0.514381	0.00228271	0.000292969	0.514381	
12.248	0.90625	30.2019	4.97955	0.0256348	0.00274658	-0.0128174	12.3359	-0.0960462	30.0921	0.526612	12.8626	-0.526655	0.0022583	0.000354004	0.526655	
11.6834	-0.875	30.1062	4.99237	0.0259399	0.00396729	0.00213623	12.3243	-0.104801	30.0897	0.52657	12.8629	-0.538588	0.00230713	-0.000402832	0.538588	
11.0319	-5.59375	29.9467	4.99542	0.0253296	0.00183105	-0.0106812	12.3127	-0.114184	30.0874	0.52653	12.8632	-0.550516	0.00231934	0.000476074	0.550516	
11.1188	-1.71875	29.9999	4.99695	0.0259399	0.00366211	-0.0106812	12.3008	-0.125306	30.0851	0.526489	12.8635	-0.562715	0.00230713	-0.000549316	0.562715	
12.6389	3.375	30.1806	4.97101	0.0241089	0.00213623	-0.0131226	12.2888	-0.136839	30.0829	0.52645	12.8638	-0.575003	0.00228271	-0.00247803	0.575003	
13.5944	0.1875	29.6278	4.98749	0.0231934	0.00457764	-0.0137329	12.2773	-0.147076	30.0806	0.526411	12.8641	-0.586739	0.00235596	-0.00437012	0.586739	
12.552	-0.59375	30.3932	4.99176	0.0241089	0.00274658	0.0131226	12.2668	-0.156373	30.0784	0.526372	12.8644	-0.597568	0.00231934	-0.00361328	0.597568	
11.4228	-0.625	30.3082	4.99084	0.0265503	0.00366211	0.0137329	12.2568	-0.165501	30.0763	0.526336	12.8646	-0.607846	0.00241699	-0.00404053	0.607846	
12.3783	-1.09375	30.0424	4.97345	0.0265503	-0.00152588	-0.0363159	12.2469	-0.174664	30.0744	0.526303	12.8649	-0.617945	0.00250244	-0.00529785	0.617945	
12.4217	-0.65625	30.2976	5.00122	0.0222778	0.00396729	0.0167847	12.2374	-0.183936	30.0727	0.526272	12.8651	-0.627743	0.00249023	-0.00465088	0.627743	
12.2914	4.15625	30.2338	4.99054	0.0234985	0.00366211	0.0408936	12.2282	-0.192499	30.071	0.526243	12.8653	-0.6371	0.00238037	-0.00180664	0.6371	
13.1167	-0.21875	30.3294	4.99237	0.0234985	0.00183105	0.00396729	12.2196	-0.199489	30.0696	0.526218	12.8655	-0.645926	0.00233154	-0.000488281	0.645926	
13.3338	-0.15625	30.6165	4.98749	0.0231934	0.00335693	0.0180054	12.2117	-0.205559	30.0684	0.526197	12.8657	-0.653956	0.00240479	0.000500488	0.653956	
12.9429	0.46875	30.3082	4.97101	0.020752	0.00396729	0.0250244	12.2047	-0.211298	30.0675	0.526182	12.8658	-0.661072	0.00240479	0.00032959	0.661072	
11.7702	-1.46875	30.0743	4.98901	0.0268555	0.00152588	-0.0140381	12.1983	-0.216813	30.0668	0.526169	12.8659	-0.667581	0.00238037	-0.000952148	0.667581	
11.4228	-1.59375	29.9361	4.99542	0.0259399	0.00457764	0.0292969	12.192	-0.222631	30.0661	0.526158	12.866	-0.673998	0.00249023	0.000415039	0.673998	
4.60386	-1.28125	30.0318	4.99146	0.0234985	0.00213623	0.0201416	12.1844	-0.229029	30.0655	0.526145	12.8661	-0.681678	0.00246582	0.00289307	0.681678	
12.0743	-1.03125	30.0637	4.99237	0.0231934	0.00396729	-0.0106812	12.1746	-0.235866	30.0648	0.526133	12.8661	-0.691581	0.00247803	0.00195313	0.691581	
6.77549	-0.78125	30.053	4.98199	0.027771	0.00335693	-0.00274658	12.1631	-0.242958	30.0641	0.526121	12.8662	-0.703183	0.00249023	0.0013916	0.703183	
12.4217	-1.03125	30.2019	4.99023	0.0256348	0.00244141	-0.0238037	12.1503	-0.250214	30.0634	0.52611	12.8663	-0.716023	0.00250244	0.00123291	0.716023	
11.8137	-0.625	30.1806	4.98749	0.0244141	0.00244141	0.027771	12.1372	-0.257599	30.0629	0.526101	12.8664	-0.729208	0.00251465	0.00303955	0.729208	
12.2914	-1	29.0005	4.99359	0.0259399	0.00427246	-0.00274658	12.1245	-0.265076	30.0623	0.526089	12.8665	-0.741979	0.00263672	0.00255127	0.741979	
10.6844	-1.78125	29.9786	4.98932	0.0265503	0.0012207	0.0204468	12.112	-0.272811	30.0613	0.526073	12.8666	-0.754566	0.00255127	0.0036499	0.754566	
11.3359	-1.71875	29.1387	4.98749	0.0259399	0.00335693	-0.0338745	12.0995	-0.28108	30.0601	0.526051	12.8668	-0.767293	0.00267334	0.00202637	0.767293	
7.94817	-0.375	30.2657	4.97864	0.0241089	0.00213623	0.0183105	12.0862	-0.289755	30.0586	0.526026	12.867	-0.780711	0.00288086	0.00257568	0.780711	
13.9853	1.03125	30.5102	4.98016	0.0231934	0.00396729	-0.00366211	12.0724	-0.298169	30.0572	0.526001	12.8671	-0.794767	0.00292969	0.00294189	0.794767	
12.7692	-1	30.2869	4.98352	0.0256348	0.00183105	-0.00152588	12.059	-0.305998	30.056	0.52598	12.8673	-0.808243	0.00284424	0.00279541	0.808243	
12.9864	-0.78125	30.3401	4.98505	0.0216675	0.00213623	0.0088501	12.0469	-0.313635	30.0551	0.525964	12.8674	-0.820561	0.00285645	0.00357666	0.820561	
12.4217	-0.71875	30.457	4.98688	0.0234985	0.00152588	-0.0228882	12.0355	-0.32132	30.0544	0.525951	12.8675	-0.831962	0.002771	0.00308838	0.831962	
12.9429	-0.53125	30.9886	4.97894	0.0256348	0.00213623	-0.00366211	12.025	-0.328964	30.054	0.525945	12.8676	-0.842516	0.002771	0.0034668	0.842516	
12.9864	-0.75	30.3082	4.98505	0.0256348	0.00213623	0.0238037	12.0154	-0.33653	30.054	0.525945	12.8676	-0.852155	0.00267334	0.00496826	0.852155	
13.2035	-0.59375	30.3507	4.98169	0.0238037	0.00518799	0.0442505	12.0067	-0.344029	30.0543	0.52595	12.8675	-0.860793	0.002771	0.00621338	0.860793	
9.90264	-0.1875	30.3932	4.97711	0.0234985	0.0012207	-0.0305176	11.9985	-0.351383	30.0548	0.525958	12.8675	-0.868908	0.00267334	0.00444336	0.868908	
12.5086	-0.59375	30.457	4.98047	0.0250244	0.00274658	0.00671387	11.9903	-0.358505	30.0554	0.52597	12.8674	-0.877095	0.00284424	0.00616455	0.877095	
12.1177	-4.15625	30.0211	4.98657	0.0259399	0.00183105	-0.055542	11.9821	-0.366013	30.0562	0.525984	12.8673	-0.885118	0.00275879	0.00327148	0.885118	
11.2925	-1.375	29.9042	4.98444	0.0234985	0.00213623	0.00854492	11.9743	-0.374627	30.0571	0.525998	12.8672	-0.89284	0.00269775	0.00197754	0.89284	
12.0743	-0.84375	29.9255	4.9823	0.0247192	0.00335693	0.0183105	11.9666	-0.38391	30.0578	0.526011	12.8671	-0.900476	0.00275879	0.00255127	0.900476	
12.1177	-1.46875	29.2663	4.98077	0.0253296	0.00213623	-0.00762939	11.9591	-0.393334	30.0583	0.52602	12.867	-0.907918	0.00270996	0.00152588	0.907918	
12.5086	-0.4375	29.7766	4.97803	0.0234985	0.00305176	-0.0140381	11.952	-0.402839	30.0584	0.526023	12.867	-0.914987	0.00267334	-3.66211E-005	0.914987	
12.0743	-0.34375	30.2763	4.97711	0.0228882	0.00701904	0.0177002	11.9454	-0.412179	30.0584	0.526022	12.867	-0.921616	0.00289307	0.00123291	0.921616	
7.03608	-0.53125	30.1381	4.98199	0.0259399	0.00335693	0.0183105	11.9383	-0.421194	30.0584	0.526023	12.867	-0.928642	0.00284424	0.000793457	0.928642	
11.9005	-0.8125	29.9999	4.98077	0.0280762	0.0012207	-0.00823975	11.93	-0.429977	30.0585	0.526024	12.867	-0.936923	0.00280762	-0.000341797	0.936923	
10.7713	-2.28125	29.9042	4.97955	0.0241089	0.00244141	-0.0100708	11.9211	-0.438875	30.0586	0.526025	12.867	-0.945867	0.00274658	-0.000317383	0.945867	
11.4228	-1.34375	29.7766	4.98383	0.0244141	0.00366211	0.0161743	11.912	-0.448232	30.0585	0.526024	12.867	-0.954948	0.00275879	0.000439453	0.954948	
13.3772	-0.09375	30.4995	4.97406	0.0241089	0.00274658	-0.0369263	11.9032	-0.45777	30.0584	0.526022	12.867	-0.96382	0.002771	-8.54492E-005	0.96382	
13.4207	0.40625	30.4358	4.96765	0.0241089	0.00213623	-0.0204468	11.8952	-0.466865	30.0585	0.526023	12.867	-0.971744	0.00275879	-0.00201416	0.971744	
12.9864	-0.34375	30.3613	4.97131	0.0231934	0.000915527	0.0177002	11.8884	-0.475295	30.0587	0.526028	12.8669	-0.978488	0.00262451	-0.00119629	0.978488	
13.6813	0.09375	30.2125	4.97528	0.0228882	0.00396729	0.00335693	11.8828	-0.483164	30.0592	0.526036	12.8669	-0.984116	0.00273437	-0.00187988	0.984116	
16.1569	-0.28125	30.0956	4.97589	0.0256348	0.00335693	-0.0378418	11.8787	-0.490526	30.0597	0.526045	12.8668	-0.988143	0.00273437	-0.00203857	0.988143	
13.1167	0.15625	30.1593	4.97467	0.0234985	0.00427246	0.0393677	11.8765	-0.497376	30.0603	0.526055	12.8667	-0.990223	0.00281982	-0.00119629	0.990223	
12.7258	-4.71875	30.1593	4.97772	0.0231934	0.00213623	-0.0494385	11.8756	-0.504405	30.0609	0.526066	12.8667	-0.991044	0.00274658	-0.00302734	0.991044	
12.8995	-0.28125	30.2231	5.00458	0.022583	0.00213623	-0.0292969	11.8754	-0.512358	30.0615	0.526077	12.8666	-0.991211	0.00275879	-0.00413818	0.991211	
13.6813	0.125	30.0956	4.96979	0.0259399	0.00274658	0.00518799	11.8758	-0.520517	30.0622	0.526089	12.8665	-0.990633	0.0027832	-0.00428467	0.990633	
13.9853	0.125	29.6171	4.96613	0.0222778	0.00244141	0.0125122	11.8774	-0.528052	30.0629	0.5261	12.8664	-0.989033	0.00281982	-0.00286865	0.989033	
12.6823	-0.59375	29.968	4.97467	0.0247192	0.00335693	0.00396729	11.8799	-0.535031	30.0633	0.526108	12.8663	-0.98645	0.00286865	-0.00256348	0.98645	
12.248	-1.03125	29.9467	4.97864	0.0259399	0.00335693	-0.0137329	11.883	-0.541759	30.0637	0.526114	12.8663	-0.983339	0.00291748	-0.00406494	0.983339	
9.20771	-1.21875	30.053	4.97528	0.0253296	0.00274658	0.00701904	11.8857	-0.548516	30.0639	0.526119	12.8663	-0.980522	0.00281982	-0.0055542	0.980522	
12.1611	-0.71875	30.0211	4.98505	0.0234985	0.00152588	0.0125122	11.8877	-0.555347	30.0642	0.526123	12.8662	-0.978539	0.00283203	-0.00383301	0.978539	
12.3349	-3.78125	30.1487	4.97467	0.0283813	0.00213623	0.0283813	11.8893	-0.562594	30.0644	0.526127	12.8662	-0.976887	0.00280762	-0.00296631	0.976887	
12.4217	-0.875	30.0956	4.98444	0.0253296	0.00396729	0.0234985	11.8911	-0.570659	30.0646	0.526131	12.8662	-0.975027	0.00289307	0.000195313	0.975027	
12.1611	-0.78125	30.0956	4.97681	0.0253296	0.00213623	-0.00213623	11.8932	-0.579068	30.0649	0.526136	12.8661	-0.972952	0.00289307	-0.000231934	0.972952	
12.3783	-0.78125	29.245	4.97559	0.0253296	0.00427246	0.0366211	11.8954	-0.587322	30.065	0.526138	12.8661	-0.970724	0.00292969	0.000500488	0.970724	
11.6399	-1	29.8085	4.97772	0.0259399	0.000915527	-0.0195313	11.8977	-0.595443	30.0649	0.526135	12.8661	-0.968461	0.00288086	2.44141E-005	0.968461	
11.6399	-1.09375	29.8617	4.97681	0.0256348	0.0088501	-0.0308228	11.8998	-0.603512	30.0645	0.526129	12.8662	-0.966353	0.00311279	-0.000646973	0.966353	
10.0329	-0.125	30.2444	4.9704	0.020752	0.00335693	-0.0109863	11.9015	-0.611439	30.064	0.526121	12.8662	-0.964739	0.00296631	-0.00179443	0.964739	
12.8126	0.28125	30.5208	4.98199	0.0247192	0.00366211	-0.0286865	11.9026	-0.618874	30.0637	0.526115	12.8663	-0.963648	0.00297852	-0.00367432	0.963648	
13.1601	-5.78125	30.2231	4.96857	0.0250244	0.00305176	-0.0164795	11.9039	-0.626494	30.0636	0.526112	12.8663	-0.962382	0.00305176	-0.00400391	0.962382	
12.9864	-0.4375	30.2019	4.97284	0.0250244	0.00152588	0.0119019	11.9059	-0.635278	30.0636	0.526113	12.8663	-0.960444	0.00301514	-0.003125	0.960444	
12.7692	-0.1875	29.9361	4.97131	0.0259399	0.00335693	0.0378418	11.9084	-0.644422	30.0636	0.526114	12.8663	-0.957903	0.00300293	-0.0022583	0.957903	
12.7258	-0.40625	30.1381	4.98962	0.0259399	0.00366211	0.0222778	11.9114	-0.653037	30.0637	0.526114	12.8663	-0.95489	0.00303955	0.000109863	0.95489	
12.4217	-0.59375	30.3082	4.97345	0.0256348	0.000915527	-0.000915527	11.9148	-0.661192	30.0638	0.526116	12.8663	-0.951512	0.00299072	0.000891113	0.951512	
12.248	-0.375	30.2231	4.97101	0.0231934	0.010376	0.0384521	11.9183	-0.668958	30.064	0.52612	12.8663	-0.947903	0.00336914	0.00172119	0.947903	
11.6834	0.125	30.3082	4.9707	0.0231934	0.00274658	-0.00152588	11.922	-0.676226	30.0643	0.526125	12.8662	-0.944259	0.00332031	0.00152588	0.944259	
13.3338	0.84375	30.372	4.97681	0.0256348	0.00274658	0.017395	11.9256	-0.68271	30.0647	0.526133	12.8661	-0.940528	0.0032959	0.00373535	0.940528	
12.8126	-0.09375	30.1168	4.98749	0.0265503	0.00305176	0.00183105	11.9297	-0.688276	30.0653	0.526143	12.8661	-0.936372	0.00324707	0.00223389	0.936372	
11.2925	-1.09375	29.8829	4.9765	0.0231934	0.00213623	-0.0131226	11.934	-0.693289	30.0659	0.526154	12.866	-0.931963	0.00324707	0.00368652	0.931963	
11.5965	-1.03125	29.851	4.98047	0.0244141	0.00183105	0.00640869	11.9381	-0.698211	30.0664	0.526162	12.8659	-0.927834	0.00323486	0.00511475	0.927834	
12.3783	-0.78125	30.457	4.9765	0.0247192	0.00305176	0.00854492	11.9419	-0.703138	30.0669	0.52617	12.8659	-0.923991	0.00324707	0.00524902	0.923991	
12.4652	-0.5	30.0956	4.97467	0.0247192	0.00213623	-0.0131226	11.9457	-0.707937	30.0674	0.526179	12.8658	-0.920108	0.00323486	0.00422363	0.920108	
11.7268	-0.78125	30.1593	4.97711	0.0241089	0.0088501	0.0167847	11.9496	-0.712526	30.068	0.526189	12.8657	-0.916155	0.00345459	0.00473633	0.916155	
11.5531	-0.28125	30.1062	4.97711	0.0238037	0.00366211	0.0158691	11.9533	-0.716877	30.0686	0.5262	12.8657	-0.912386	0.0034668	0.00592041	0.912386	
11.5531	-0.84375	29.968	4.98047	0.027771	0.00274658	0.00183105	11.9566	-0.72097	30.0691	0.52621	12.8656	-0.908969	0.0034668	0.00571289	0.908969	
11.4662	-6.34375	29.8617	4.97803	0.0253296	0.00213623	-0.038147	11.9596	-0.725762	30.0697	0.526219	12.8655	-0.905942	0.00349121	0.00368652	0.905942	
11.4662	-1.125	29.9892	4.97986	0.0231934	0.00366211	-0.00213623	11.9621	-0.732211	30.0701	0.526226	12.8655	-0.903326	0.00355225	0.00246582	0.903326	
12.5955	-0.21875	30.1381	4.97711	0.0241089	0.00244141	-0.0115967	11.9645	-0.739347	30.0704	0.526232	12.8654	-0.90094	0.00349121	0.00106201	0.90094	
13.6813	0.1875	29.8404	4.97192	0.0244141	0.00335693	-0.00274658	11.9671	-0.745989	30.0707	0.526237	12.8654	-0.898256	0.00354004	0.0010376	0.898256	
12.7692	0	30.2869	4.97345	0.0198364	0.0012207	-0.0326538	11.9704	-0.751911	30.071	0.526242	12.8653	-0.894915	0.00341797	-0.0017334	0.894915	
11.9005	0.03125	30.053	4.97711	0.0241089	0.0088501	-0.0317383	11.9741	-0.757126	30.0712	0.526247	12.8653	-0.891185	0.00373535	-0.00222168	0.891185	
11.6834	-0.5	30.2231	4.98077	0.0259399	0.00183105	0.0271606	11.9777	-0.761757	30.0716	0.526252	12.8653	-0.887523	0.00345459	9.76563E-005	0.887523	
12.248	-0.6875	30.0743	4.99054	0.0256348	0.00305176	0.00671387	11.9812	-0.76601	30.0719	0.526259	12.8652	-0.884045	0.00344238	0.000805664	0.884045	
12.552	-3.78125	30.1381	4.98108	0.0253296	0.00152588	-0.0549316	11.9846	-0.770517	30.0723	0.526265	12.8652	-0.880558	0.00335693	-0.000244141	0.880558	
12.8126	-0.28125	30.1168	4.97955	0.0216675	0.00274658	0.020752	11.9883	-0.775712	30.0727	0.526272	12.8651	-0.876844	0.00334473	0.00124512	0.876844	
13.2035	0.21875	30.3082	4.97711	0.0247192	0.00274658	-0.00701904	11.9923	-0.780884	30.0731	0.52628	12.8651	-0.87272	0.00339355	0.000488281	0.87272	
12.8126	0.15625	31.0205	4.97589	0.0234985	0.00274658	0.00152588	11.9969	-0.785342	30.0738	0.526291	12.865	-0.86808	0.00336914	-0.000964355	0.86808	
11.6399	-0.75	29.8936	4.97833	0.0222778	0.00213623	-0.0088501	12.0017	-0.789192	30.0747	0.526307	12.8648	-0.863178	0.00330811	-0.00220947	0.863178	
11.0319	-0.96875	29.7872	4.98901	0.0274658	0.010376	0.0378418	12.0061	-0.792776	30.0757	0.526324	12.8647	-0.858578	0.00368652	-0.00065918	0.858578	
15.462	-0.875	30.0743	4.99023	0.0253296	0.00244141	0.0256348	12.0106	-0.796295	30.0764	0.526338	12.8646	-0.853977	0.00336914	-0.00117188	0.853977	
11.9874	-1	30.1062	4.98566	0.0198364	0.00274658	0.0314331	12.0159	-0.799774	30.0772	0.526351	12.8645	-0.848626	0.00336914	0.000146484	0.848626	
12.0743	-5.09375	30.1168	4.98444	0.0231934	0.00488281	0.0338745	12.0215	-0.803872	30.0779	0.526363	12.8644	-0.842925	0.00345459	0.000805664	0.842925	
13.2904	-1.84375	30.2869	4.98932	0.0234985	0.00213623	0.0314331	12.0271	-0.80935	30.0786	0.526376	12.8643	-0.83721	0.00341797	0.00198975	0.83721	
11.6399	-0.9375	29.9361	4.98505	0.0253296	0.000305176	-0.0411987	12.0329	-0.815641	30.0794	0.526389	12.8642	-0.831348	0.00334473	0.000866699	0.831348	
11.5531	-1.21875	30.457	4.99023	0.0271606	0.00274658	-0.00854492	12.0384	-0.821973	30.0802	0.526403	12.8641	-0.825686	0.00338135	0.000268555	0.825686	
10.4238	-1.59375	29.8617	4.98749	0.0241089	0.00244141	-0.0149536	12.0433	-0.828345	30.081	0.526417	12.864	-0.820677	0.00335693	-0.000671387	0.820677	
10.1632	-1.28125	30.1487	4.98749	0.0259399	0.0088501	-0.00701904	12.0472	-0.834862	30.0818	0.526431	12.8639	-0.816713	0.00362549	-0.000427246	0.816713	
13.9853	-0.46875	30.372	4.98505	0.0241089	0.00213623	0.0119019	12.0504	-0.841352	30.0826	0.526445	12.8638	-0.813419	0.00335693	-0.000622559	0.813419	
13.0298	-0.28125	30.3932	4.98749	0.0216675	0.00274658	0.00305176	12.0539	-0.84748	30.0835	0.526461	12.8637	-0.809761	0.00332031	-0.00113525	0.809761	
12.7692	-0.34375	30.1912	4.99146	0.0241089	0.00366211	0.0491333	12.0581	-0.853082	30.0845	0.526479	12.8636	-0.805497	0.00335693	0.000756836	0.805497	
12.3783	-0.34375	30.2444	4.9881	0.0283813	0.00366211	-0.00274658	12.0625	-0.858162	30.0856	0.526498	12.8634	-0.800947	0.00341797	0.00217285	0.800947	
12.0743	-0.84375	30.053	4.98688	0.020752	0.000915527	-0.00854492	12.0669	-0.862823	30.0867	0.526518	12.8633	-0.796338	0.00330811	0.0019165	0.796338	
12.5955	-0.59375	31.0418	4.99146	0.0234985	0.00488281	0.0231934	12.0714	-0.867193	30.088	0.52654	12.8631	-0.791737	0.00340576	0.00330811	0.791737	
11.8137	-0.40625	30.2125	4.98871	0.0259399	0.00152588	-0.055542	12.0758	-0.871251	30.0895	0.526566	12.8629	-0.787132	0.00333252	0.00119629	0.787132	
12.3349	-0.5	30.17	4.97345	0.0241089	0.00213623	0	12.0801	-0.874922	30.0912	0.526595	12.8627	-0.782623	0.00336914	0.00250244	0.782623	
15.0711	-0.03125	30.3932	4.9881	0.0222778	0.00366211	0.00213623	12.0847	-0.878145	30.0929	0.526625	12.8625	-0.777758	0.00316162	0.00385742	0.777758	
13.6378	0.1875	30.4464	4.98566	0.0231934	0.00396729	0.0241089	12.0904	-0.880768	30.0947	0.526657	12.8622	-0.771835	0.00324707	0.00373535	0.771835	
11.0319	-1.46875	29.9361	4.99542	0.0259399	0.00152588	0.0216675	12.0967	-0.882928	30.0965	0.526689	12.862	-0.765324	0.00318604	0.0043335	0.765324	
10.8582	-1.78125	30.0743	4.99298	0.0247192	0.00305176	-0.00762939	12.1024	-0.885167	30.0983	0.526721	12.8618	-0.759323	0.00324707	0.00622559	0.759323	
11.9005	-1.21875	29.1812	4.9942	0.0265503	0.00518799	0.0198364	12.1074	-0.887749	30.0999	0.526748	12.8616	-0.754138	0.00334473	0.00618896	0.754138	
12.248	-0.875	30.372	4.99542	0.0256348	0.00213623	-0.0442505	12.112	-0.89048	30.1011	0.52677	12.8614	-0.749403	0.00332031	0.00469971	0.749403	
12.1177	-1.09375	30.2019	4.99329	0.0250244	0.00305176	-0.0167847	12.1164	-0.893193	30.1023	0.526791	12.8612	-0.744829	0.00333252	0.00396729	0.744829	
11.7268	-1.03125	30.2869	4.9942	0.0231934	0.00518799	0.00396729	12.1206	-0.895892	30.1036	0.526812	12.8611	-0.74044	0.00345459	0.00447998	0.74044	
12.9429	-0.34375	29.8829	4.9765	0.0253296	0.00396729	-0.0106812	12.1247	-0.898484	30.1048	0.526834	12.8609	-0.736196	0.00319824	0.00253906	0.736196	
11.944	-1.84375	30.053	4.99115	0.0289917	0.00518799	0.0259399	12.1288	-0.90098	30.1059	0.526854	12.8608	-0.731941	0.00330811	0.00255127	0.731941	
10.9016	-4.40625	29.8829	4.99725	0.0265503	0.00457764	-0.0109863	12.1327	-0.90414	30.1069	0.526871	12.8606	-0.727968	0.00338135	0.000854492	0.727968	
10.7713	-1.5	30.1168	4.9942	0.0265503	0.00366211	0.0265503	12.1357	-0.908513	30.1078	0.526887	12.8605	-0.724766	0.00333252	0.000561523	0.724766	
12.7258	-0.84375	30.7653	4.98688	0.0265503	0.00274658	0.0167847	12.1382	-0.913451	30.1088	0.526903	12.8604	-0.72219	0.00335693	-2.44141E-005	0.72219	
13.3772	-0.1875	31.4139	4.98322	0.0247192	0.00152588	-0.017395	12.1407	-0.918172	30.1101	0.526926	12.8602	-0.719488	0.00340576	0.000927734	0.719488	
12.8995	-0.15625	30.457	4.9881	0.0234985	0.00366211	-0.0427246	12.1438	-0.922372	30.1119	0.526958	12.86	-0.716215	0.00344238	-0.000439453	0.716215	
12.6389	-0.5625	30.2231	4.99146	0.0241089	0.010376	-0.00579834	12.1472	-0.926018	30.114	0.526995	12.8597	-0.712511	0.00375977	-7.32422E-005	0.712511	
13.2035	-0.40625	30.2019	4.98077	0.0259399	0.00396729	-0.0100708	12.1509	-0.929224	30.1161	0.527032	12.8594	-0.70849	0.00356445	-0.000195313	0.70849	
12.6823	-0.28125	30.3294	4.99176	0.0247192	0.00396729	-0.00549316	12.155	-0.931998	30.1182	0.527069	12.8591	-0.704114	0.0036377	-0.000891113	0.704114	
12.7692	0.21875	30.3082	4.98779	0.0204468	0.00183105	0.0228882	12.1594	-0.934213	30.1204	0.527107	12.8589	-0.699456	0.00360107	-9.76563E-005	0.699456	
12.8126	-0.53125	30.372	4.98688	0.0222778	0.00213623	0	12.164	-0.935829	30.1226	0.527145	12.8586	-0.694571	0.00354004	-0.00206299	0.694571	
13.5944	-1.5	30.4145	4.97223	0.0222778	0.00274658	-0.00213623	12.169	-0.937172	30.1249	0.527185	12.8583	-0.689321	0.00350342	-0.00203857	0.689321	
12.9864	-0.28125	31.1693	4.98505	0.0256348	0.00213623	0.0314331	12.1744	-0.938478	30.1274	0.527229	12.858	-0.683546	0.00355225	-0.000439453	0.683546	
12.0743	-1.3125	30.1168	4.99237	0.0234985	0.00396729	0.0338745	12.1801	-0.939679	30.1301	0.527278	12.8576	-0.677469	0.00351563	-1.2207E-005	0.677469	
11.2925	-1.8125	29.8829	4.99298	0.0253296	-0.00213623	0.0158691	12.1856	-0.940987	30.1329	0.527326	12.8572	-0.671633	0.00336914	0.00284424	0.671633	
14.4631	-1.3125	30.0318	4.98749	0.0259399	0.00274658	0.0119019	12.1909	-0.942635	30.1355	0.527372	12.8569	-0.665955	0.00339355	0.00332031	0.665955	
12.4217	-1.46875	30.1062	4.99908	0.0247192	0.00335693	-0.0442505	12.1967	-0.944557	30.138	0.527415	12.8566	-0.659884	0.00338135	0.00146484	0.659884	
12.3783	-1.59375	30.1593	4.98749	0.0234985	0.00274658	-0.0131226	12.2027	-0.946733	30.1403	0.527455	12.8563	-0.653578	0.00333252	-2.44141E-005	0.653578	
10.5107	-0.96875	30.0849	4.97803	0.0247192	0.00213623	-0.0411987	12.2083	-0.949117	30.1425	0.527494	12.856	-0.647668	0.00335693	-0.00253906	0.647668	
11.8137	-1.21875	30.1168	4.98566	0.0247192	0.000915527	0.00762939	12.2132	-0.951566	30.1447	0.527532	12.8557	-0.642528	0.00327148	-0.00192871	0.642528	
12.0308	-1	31.0524	4.98962	0.0250244	0.00305176	0.0567627	12.2174	-0.954023	30.1469	0.52757	12.8554	-0.637968	0.00318604	-0.00045166	0.637968	
11.5965	-1.71875	28.5753	4.9884	0.0250244	0.00305176	-0.0131226	12.2213	-0.956568	30.149	0.527608	12.8551	-0.633779	0.00322266	0.000793457	0.633779	
11.1188	-1.15625	30.0637	4.98871	0.0241089	0.00640869	0.0283813	12.2247	-0.959298	30.1507	0.527638	12.8549	-0.630179	0.00335693	0.0026001	0.630179	
17.7639	-0.03125	30.3932	4.98047	0.0241089	0.00274658	0.0299072	12.2284	-0.961968	30.1521	0.527662	12.8547	-0.626317	0.00325928	0.0036377	0.626317	
11.7268	-0.375	30.3613	4.96948	0.0241089	0.0012207	0.0216675	12.2334	-0.964195	30.1536	0.527688	12.8545	-0.621109	0.00314941	0.00493164	0.621109	
12.9864	-0.40625	30.4783	4.97955	0.0234985	0.00396729	0.0100708	12.2391	-0.96593	30.1552	0.527715	12.8543	-0.615245	0.00310059	0.00429688	0.615245	
13.1167	-0.59375	30.2231	4.98413	0.0265503	0.00396729	0.00946045	12.2448	-0.967282	30.1568	0.527744	12.8541	-0.60928	0.00307617	0.00511475	0.60928	
13.0298	-0.84375	30.3932	4.98077	0.0247192	0.00213623	-0.00823975	12.2509	-0.968364	30.1585	0.527774	12.8539	-0.603001	0.00301514	0.00372314	0.603001	
12.4652	-0.40625	30.8398	4.98077	0.0231934	0.0012207	-0.00488281	12.2571	-0.969224	30.1603	0.527806	12.8536	-0.596507	0.0029541	0.00285645	0.596507	
12.8126	-0.625	30.3613	4.9826	0.0228882	0.00213623	-0.0158691	12.2634	-0.969807	30.1624	0.527841	12.8534	-0.589933	0.00297852	0.00291748	0.589933	
13.1167	-0.34375	30.3401	4.98077	0.0247192	-0.00366211	0.00640869	12.2699	-0.970077	30.1645	0.527879	12.8531	-0.583229	0.00268555	0.00488281	0.583229	
16.8519	0.3125	30.3082	4.97589	0.0216675	0.00274658	-0.0167847	12.2771	-0.969892	30.1667	0.527918	12.8528	-0.575687	0.00238037	0.00444336	0.575687	
13.8116	-0.28125	30.4145	4.96674	0.0234985	0.00396729	-0.0189209	12.2859	-0.969111	30.169	0.527957	12.8525	-0.566606	0.00238037	0.00408936	0.566606	
12.2914	-0.8125	30.0105	4.97833	0.0256348	0.00335693	-0.0354004	12.2956	-0.96792	30.1712	0.527996	12.8522	-0.556651	0.00235596	0.00289307	0.556651	
11.5531	-1.65625	29.9042	4.98657	0.0259399	0.00640869	0.00396729	12.305	-0.966724	30.1733	0.528032	12.8519	-0.546931	0.00253906	0.00213623	0.546931	
12.1177	-1.125	30.0956	4.98016	0.0216675	0.00274658	-0.0204468	12.3139	-0.965783	30.1752	0.528065	12.8517	-0.537831	0.00256348	0.00131836	0.537831	
11.9874	-0.34375	30.7653	4.98077	0.0241089	0.00152588	-0.0119019	12.3222	-0.964936	30.177	0.528098	12.8514	-0.529275	0.00251465	0.000927734	0.529275	
12.5955	-0.78125	28.7347	4.97589	0.0250244	0.00366211	-0.0131226	12.3301	-0.963922	30.1788	0.528128	12.8512	-0.521118	0.00257568	-0.000854492	0.521118	
12.7258	-0.78125	30.1487	4.97559	0.0247192	0.00213623	-0.0326538	12.3378	-0.962762	30.1801	0.528151	12.851	-0.513203	0.00250244	-0.00351563	0.513203	
15.5489	-0.78125	30.1487	4.98169	0.0247192	0.00213623	0.00640869	12.346	-0.961529	30.1811	0.528169	12.8509	-0.504937	0.00267334	-0.00389404	0.504937	
12.0743	-1.25	30.1168	4.98077	0.0238037	0.00244141	0.0112915	12.3548	-0.960301	30.1821	0.528186	12.8508	-0.495952	0.00266113	-0.00391846	0.495952	
11.6399	1.375	29.9148	4.98047	0.0265503	0.00213623	0.017395	12.3637	-0.958815	30.1829	0.528202	12.8507	-0.486993	0.0026123	-0.00145264	0.486993	
11.3793	-1.125	29.8936	4.97772	0.0234985	0.00366211	0.020752	12.3718	-0.956728	30.1837	0.528214	12.8506	-0.478786	0.00264893	-9.76563E-005	0.478786	
13.4207	0.09375	30.3613	4.97009	0.0234985	0.00396729	0.0088501	12.3794	-0.954242	30.1842	0.528224	12.8505	-0.471139	0.00272217	0.0019043	0.471139	
13.4641	-0.09375	30.7653	4.96857	0.0241089	0.000610352	0.0283813	12.387	-0.95141	30.1849	0.528235	12.8504	-0.463409	0.00270996	0.00273437	0.463409	
13.3772	-0.0625	30.3294	4.97192	0.0247192	0.00396729	-0.000305176	12.395	-0.94811	30.1857	0.52825	12.8503	-0.455271	0.00274658	0.00045166	0.455271	
13.1601	-0.125	30.0318	4.97437	0.0213623	-0.000305176	0.00579834	12.4034	-0.944391	30.1867	0.528267	12.8502	-0.446814	0.0026123	0.0012085	0.446814	
14.6802	-0.59375	30.2444	4.97528	0.0250244	0.00152588	-0.0476074	12.4121	-0.940357	30.1876	0.528282	12.8501	-0.437914	0.00241699	-0.00183105	0.437914	
12.7692	-0.46875	30.1487	4.97284	0.0247192	0.00305176	-0.00488281	12.4215	-0.936156	30.1884	0.528297	12.8499	-0.428452	0.0024292	-0.00322266	0.428452	
12.4217	0.84375	30.0956	4.9762	0.0241089	0.000610352	-0.010376	12.431	-0.931627	30.1892	0.528311	12.8498	-0.418865	0.00240479	-0.00450439	0.418865	
13.1167	-0.125	30.1168	4.97345	0.0228882	0.00396729	-0.00457764	12.4403	-0.926509	30.1899	0.528324	12.8497	-0.409462	0.00240479	-0.00509033	0.409462	
13.4641	0.375	30.4358	4.96979	0.0265503	0.00213623	0.0167847	12.4496	-0.920844	30.1906	0.528336	12.8497	-0.400022	0.00233154	-0.00479736	0.400022	
13.2904	0.21875	30.5314	4.97192	0.0250244	0.00305176	0.00457764	12.4592	-0.914674	30.1914	0.52835	12.8496	-0.390347	0.00236816	-0.00428467	0.390347	
12.248	-1.03125	28.841	4.97284	0.0256348	0.00305176	-0.0125122	12.4688	-0.908187	30.1921	0.528362	12.8495	-0.380638	0.00244141	-0.00458984	0.380638	
11.249	-1.40625	29.8404	4.99115	0.0271606	0.00274658	-0.0363159	12.478	-0.901866	30.1924	0.528367	12.8494	-0.371454	0.00246582	-0.00540771	0.371454	
11.7268	-1.09375	29.8829	4.97772	0.0247192	0.00152588	-0.00946045	12.4863	-0.895973	30.1923	0.528364	12.8494	-0.363172	0.00267334	-0.00604248	0.363172	
8.86025	-0.71875	30.053	4.96948	0.0247192	0.00213623	0.0198364	12.4933	-0.890399	30.192	0.528359	12.8495	-0.356192	0.00264893	-0.00457764	0.356192	
12.1611	1.28125	30.0105	4.97345	0.0234985	0.00152588	-0.0134277	12.4988	-0.88466	30.1916	0.528352	12.8495	-0.350769	0.00255127	-0.00435791	0.350769	
12.1177	-0.53125	30.1593	4.97284	0.0231934	0.00152588	-0.0299072	12.5033	-0.878369	30.1911	0.528344	12.8496	-0.346275	0.00247803	-0.00413818	0.346275	
12.4652	-0.53125	30.2444	4.97955	0.0253296	0.00366211	0.0186157	12.5075	-0.871802	30.1906	0.528336	12.8497	-0.34212	0.00236816	-0.00355225	0.34212	
11.9005	-0.59375	30.2231	4.97559	0.0265503	0.00152588	-0.00518799	12.5114	-0.865262	30.1902	0.528328	12.8497	-0.338276	0.00231934	-0.00294189	0.338276	
11.2056	-0.96875	29.8298	4.97833	0.0256348	0.00213623	-0.0280762	12.5148	-0.85883	30.1897	0.52832	12.8498	-0.334971	0.00234375	-0.00358887	0.334971	
11.7268	-1.34375	29.8617	4.97772	0.0216675	-0.00213623	0.0241089	12.5174	-0.852692	30.1891	0.528309	12.8499	-0.332425	0.00211182	-0.00209961	0.332425	
15.766	0.03125	30.3294	4.97192	0.0241089	0.00427246	-0.00366211	12.52	-0.846801	30.1884	0.528296	12.85	-0.329931	0.00219727	-0.000939941	0.329931	
13.2035	-0.03125	30.2976	4.9646	0.0234985	0.0012207	0.00854492	12.5235	-0.840794	30.1877	0.528284	12.85	-0.326533	0.00216064	-0.000854492	0.326533	
13.0298	1.5625	30.3294	4.96979	0.0231934	0.00396729	0.0134277	12.5277	-0.834237	30.1871	0.528274	12.8501	-0.32245	0.00222168	-0.000769043	0.32245	
12.248	-0.21875	30.0743	4.98413	0.0234985	0.00274658	0.0100708	12.5319	-0.826945	30.1866	0.528265	12.8502	-0.318287	0.00224609	-0.00106201	0.318287	
12.248	-0.53125	30.1806	4.97528	0.0244141	0.00213623	-0.010376	12.5359	-0.819303	30.186	0.528256	12.8503	-0.314326	0.00218506	-0.00230713	0.314326	
12.5086	-0.09375	29.8298	4.97498	0.0234985	0.00213623	-0.0332642	12.5397	-0.811633	30.1855	0.528246	12.8503	-0.310651	0.00211182	-0.0039917	0.310651	
12.3349	-0.46875	27.2357	4.97681	0.0234985	0.00274658	0.00366211	12.5432	-0.803911	30.1844	0.528226	12.8505	-0.307266	0.00219727	-0.00498047	0.307266	
12.9864	-0.125	30.1168	4.97437	0.0234985	0.00366211	-0.0210571	12.5466	-0.796139	30.1823	0.52819	12.8508	-0.304129	0.00218506	-0.00581055	0.304129	
11.5531	-0.09375	30.372	4.9704	0.0247192	0.00213623	-0.0338745	12.5499	-0.78827	30.1798	0.528147	12.8511	-0.301211	0.00228271	-0.00739746	0.301211	
1.04238	0.28125	30.3188	4.97375	0.0247192	0.00244141	-0.0271606	12.551	-0.780192	30.1776	0.528107	12.8514	-0.300413	0.00231934	-0.00657959	0.300413	
11.5096	-1.53125	29.9361	4.9826	0.0271606	0.00274658	0.0186157	12.5481	-0.772077	30.1754	0.528069	12.8517	-0.303525	0.00230713	-0.00563965	0.303525	
11.6399	-1.46875	29.9892	4.98352	0.0259399	0.00152588	-0.00762939	12.5432	-0.764426	30.1732	0.528031	12.8519	-0.308787	0.00234375	-0.00552979	0.308787	
11.3359	-0.9375	30.1062	4.97711	0.0247192	0.00213623	0	12.5377	-0.757406	30.171	0.527993	12.8522	-0.314507	0.00227051	-0.00534668	0.314507	
12.2046	-0.46875	30.4464	4.97589	0.0222778	0.00335693	-0.00579834	12.5319	-0.750752	30.1689	0.527956	12.8525	-0.320591	0.00231934	-0.00625	0.320591	
11.9005	-0.5	29.9892	4.98047	0.0259399	0.00183105	-0.0430298	12.5259	-0.744234	30.1669	0.527921	12.8528	-0.326842	0.00227051	-0.0081543	0.326842	
12.8126	-0.59375	30.255	4.97833	0.0247192	-0.00335693	0.00579834	12.52	-0.737801	30.165	0.527887	12.853	-0.333074	0.00201416	-0.00742187	0.333074	
11.9874	-0.84375	29.9892	4.98047	0.0256348	0.00335693	-0.0259399	12.5141	-0.731528	30.1631	0.527854	12.8533	-0.33918	0.00203857	-0.00700684	0.33918	
11.9005	-0.8125	29.8829	4.96796	0.0259399	0.00549316	0.0344849	12.5082	-0.7255	30.1611	0.52782	12.8535	-0.345295	0.00219727	-0.00524902	0.345295	
10.5107	0.84375	29.766	4.98566	0.0271606	0.00213623	-0.0280762	12.502	-0.719485	30.1591	0.527785	12.8538	-0.3518	0.00219727	-0.00716553	0.3518	
11.249	-1.09375	29.9148	4.98322	0.0253296	0.00152588	-0.000915527	12.4951	-0.713266	30.157	0.527747	12.8541	-0.359009	0.00219727	-0.00666504	0.359009	
12.6389	-0.03125	30.2869	4.97467	0.0247192	0.00366211	-0.0222778	12.4877	-0.707036	30.1548	0.527709	12.8544	-0.366653	0.00228271	-0.00635986	0.366653	
13.2035	0.125	30.1912	4.97284	0.0234985	0.00335693	0.0335693	12.4806	-0.700745	30.1527	0.527672	12.8546	-0.374064	0.00227051	-0.00576172	0.374064	
12.6823	-0.21875	27.5759	4.97711	0.0256348	0.00427246	0.0201416	12.474	-0.694238	30.1503	0.52763	12.855	-0.380984	0.00238037	-0.00474854	0.380984	
12.1177	0.15625	30.1274	4.98077	0.0247192	-0.00183105	0.0167847	12.4677	-0.687552	30.1472	0.527576	12.8554	-0.387644	0.00222168	-0.0029541	0.387644	
12.1177	-0.59375	30.17	4.98199	0.0231934	0.00396729	-0.0137329	12.4616	-0.680751	30.1438	0.527516	12.8558	-0.394253	0.00246582	-0.00446777	0.394253	
-1.52014	-0.71875	30.3826	4.97772	0.0265503	0.00183105	0.00274658	12.4533	-0.674036	30.1405	0.527459	12.8562	-0.402955	0.00236816	-0.00421143	0.402955	
12.4217	1.71875	30.2763	4.98199	0.0234985	0.00335693	0.00610352	12.4409	-0.667185	30.1375	0.527406	12.8566	-0.415733	0.00245361	-0.00430908	0.415733	
12.6389	0.125	30.2019	4.97986	0.0228882	0.00396729	-0.0012207	12.4268	-0.659719	30.1347	0.527357	12.857	-0.430194	0.00245361	-0.00489502	0.430194	
12.8561	0.6875	30.5208	4.97772	0.0228882	0.00274658	-0.0378418	12.4133	-0.651692	30.132	0.527311	12.8573	-0.444005	0.00245361	-0.00681152	0.444005	
12.9429	-0.03125	30.1274	4.9823	0.0265503	0.00152588	-0.00518799	12.4006	-0.643313	30.1296	0.527269	12.8577	-0.457062	0.0024292	-0.006604	0.457062	
11.2925	-1.34375	29.9573	4.98444	0.0259399	0.00213623	-0.03479	12.3884	-0.634939	30.1273	0.527228	12.858	-0.469591	0.0024292	-0.00666504	0.469591	
11.6399	-1.5	29.8298	4.98962	0.0241089	-0.00213623	-0.032959	12.3762	-0.627117	30.125	0.527188	12.8583	-0.482066	0.00223389	-0.00812988	0.482066	
11.6834	-1.34375	30.0211	4.99146	0.0256348	0.00274658	0.0186157	12.3639	-0.620062	30.1227	0.527147	12.8586	-0.494627	0.00219727	-0.00654297	0.494627	
11.8137	-1.21875	30.1381	4.98871	0.0241089	0.00213623	-0.00640869	12.3517	-0.613708	30.1203	0.527106	12.8589	-0.507168	0.00219727	-0.00544434	0.507168	
12.248	0.90625	30.0956	4.98688	0.0241089	0.00213623	0.0265503	12.3396	-0.607641	30.118	0.527066	12.8592	-0.519559	0.00218506	-0.0032959	0.519559	
12.4217	-0.59375	30.0318	4.98901	0.0228882	0.00396729	-0.0106812	12.3279	-0.601408	30.1158	0.527027	12.8595	-0.531617	0.00223389	-0.00446777	0.531617	
12.2914	-0.65625	30.2869	4.98566	0.0283813	0.00305176	-0.0216675	12.3165	-0.595165	30.1137	0.526989	12.8597	-0.543243	0.00229492	-0.0050293	0.543243	
11.3359	-1.21875	29.3939	4.98932	0.0265503	0.00274658	-0.0012207	12.3054	-0.589256	30.1115	0.526952	12.86	-0.554616	0.00231934	-0.00507813	0.554616	
10.7713	-1.875	28.1075	4.99084	0.0222778	0.00335693	0.000610352	12.2942	-0.583959	30.1089	0.526906	12.8604	-0.566199	0.00231934	-0.00482178	0.566199	
11.7702	-1.1875	29.9148	4.99115	0.0228882	0.00152588	0.0186157	12.2826	-0.579439	30.1057	0.52685	12.8608	-0.57818	0.00230713	-0.00235596	0.57818	
10.1632	-0.53125	30.3613	4.98688	0.0259399	0.00274658	0.0125122	12.2707	-0.575459	30.1022	0.526789	12.8612	-0.590508	0.00255127	-0.0020874	0.590508	
12.6823	-0.375	30.4251	4.98505	0.0256348	0.00274658	0.00152588	12.2586	-0.571668	30.099	0.526732	12.8617	-0.60306	0.00252686	-0.00098877	0.60306	
12.6823	1.8125	30.2763	4.98444	0.0234985	0.00457764	0.0134277	12.2468	-0.567573	30.096	0.526681	12.8621	-0.615279	0.00249023	-0.00183105	0.615279	
12.248	-6.21875	30.3294	4.98718	0.0238037	0.0012207	-0.0192261	12.2356	-0.563729	30.0933	0.526633	12.8624	-0.626849	0.00245361	-0.00147705	0.626849	
12.3783	-0.84375	30.2763	4.99115	0.0256348	0.00305176	0.0177002	12.2248	-0.561448	30.0908	0.52659	12.8627	-0.637903	0.00251465	-0.000732422	0.637903	
12.2046	-0.875	30.0105	4.99176	0.0238037	0.00213623	0.0112915	12.2145	-0.560261	30.0885	0.526549	12.863	-0.648513	0.00245361	0.000610352	0.648513	
12.4652	-0.5	30.2763	4.97528	0.0216675	0.00213623	0.0210571	12.2046	-0.559248	30.0863	0.52651	12.8633	-0.658686	0.00240479	0.000109863	0.658686	
12.7692	-0.59375	30.3401	4.99176	0.0244141	0.00213623	-0.00549316	12.1953	-0.558307	30.0843	0.526475	12.8636	-0.668324	0.00231934	-0.000915527	0.668324	
11.7268	-0.40625	30.3294	4.9881	0.0241089	0.00183105	-0.0482178	12.1864	-0.557376	30.0825	0.526443	12.8638	-0.677459	0.00246582	-0.00351563	0.677459	
14.4631	0.375	30.4145	4.98077	0.022583	0.00274658	-0.0167847	12.1781	-0.556293	30.0809	0.526415	12.864	-0.685951	0.00241699	-0.0036377	0.685951	
11.8571	0.46875	29.968	4.99298	0.0244141	0.00335693	0.00701904	12.1707	-0.554775	30.0795	0.52639	12.8642	-0.693542	0.00247803	-0.0034668	0.693542	
11.3359	-1.71875	30.1168	4.99756	0.0268555	0.0012207	0.0372314	12.1637	-0.55303	30.0781	0.526367	12.8644	-0.700736	0.00239258	-0.00222168	0.700736	
11.9005	-1.28125	30.1806	4.99542	0.0250244	0.00213623	-0.0119019	12.1565	-0.551661	30.0768	0.526345	12.8646	-0.708022	0.00231934	-0.00264893	0.708022	
12.1177	-0.8125	29.9892	4.99298	0.0234985	0.00213623	0.0296021	12.1495	-0.550789	30.0756	0.526323	12.8647	-0.715263	0.00229492	4.88281E-005	0.715263	
11.7268	-1.28125	30.7228	4.99146	0.0234985	0.0012207	0.00396729	12.1425	-0.550254	30.0745	0.526305	12.8649	-0.722354	0.00228271	0.000415039	0.722354	
12.7258	-1.125	30.1912	4.99176	0.0250244	-0.000915527	-0.0241089	12.1358	-0.550095	30.0737	0.52629	12.865	-0.729213	0.00216064	0.000842285	0.729213	
9.55518	-1.03125	30.0956	4.98932	0.0253296	0.00366211	-0.0302124	12.129	-0.550308	30.073	0.526278	12.8651	-0.736094	0.00239258	0.000952148	0.736094	
13.1167	-1.4375	30.053	4.99908	0.0262451	0.00213623	0.0149536	12.1219	-0.55089	30.0724	0.526268	12.8651	-0.743285	0.00236816	0.000805664	0.743285	
11.5531	-1.34375	30.0743	4.9942	0.0274658	0.00274658	0.0247192	12.1148	-0.551924	30.0718	0.526257	12.8652	-0.750403	0.00239258	0.00205078	0.750403	
11.5965	-7.90625	30.1593	4.99725	0.0256348	0.00213623	0.0305176	12.1079	-0.554446	30.0713	0.526247	12.8653	-0.75737	0.00239258	0.00220947	0.75737	
12.8561	-0.5625	30.3932	4.9881	0.0216675	0.000915527	-0.055542	12.1011	-0.559285	30.0708	0.526239	12.8654	-0.764212	0.00227051	0.000415039	0.764212	
13.0732	-0.09375	30.1487	4.98444	0.0216675	0.00335693	0.0320435	12.0949	-0.565023	30.0705	0.526233	12.8654	-0.770492	0.00228271	0.00256348	0.770492	
12.9429	-0.53125	31.1906	4.99023	0.0247192	0.00305176	-0.0216675	12.0894	-0.57041	30.0704	0.526232	12.8654	-0.775967	0.00229492	0.00174561	0.775967	
13.2035	-0.46875	30.2657	4.99054	0.0256348	0.00274658	0.015564	12.0848	-0.575506	30.0707	0.526238	12.8654	-0.78061	0.00227051	0.00234375	0.78061	
10.6844	-0.46875	30.2763	4.98932	0.0256348	0.00274658	0.0112915	12.0805	-0.580367	30.0713	0.526248	12.8653	-0.784792	0.00231934	0.00205078	0.784792	
22.0638	-0.34375	30.2763	4.98535	0.0234985	0.00183105	0.00701904	12.0777	-0.584971	30.072	0.52626	12.8652	-0.787522	0.00228271	0.00183105	0.787522	
12.7692	0.59375	30.2444	4.9884	0.0247192	0.00427246	0.0180054	12.0779	-0.589137	30.0728	0.526273	12.8651	-0.787151	0.00234375	0.00249023	0.787151	
12.5955	-0.34375	30.4145	4.99023	0.0241089	0.00305176	0.0283813	12.0801	-0.592715	30.0737	0.526289	12.865	-0.784931	0.00228271	0.00308838	0.784931	
13.5075	0.15625	30.6059	4.98749	0.0222778	-0.00396729	0.0112915	12.0826	-0.595791	30.0747	0.526308	12.8648	-0.782273	0.0020752	0.00430908	0.782273	
13.1167	-0.21875	30.053	4.98352	0.0231934	0.00335693	-0.00671387	12.0857	-0.598428	30.076	0.52633	12.8647	-0.778996	0.0020874	0.00333252	0.778996	
11.5096	-1.40625	31.7222	4.99146	0.0271606	0.00335693	0.00946045	12.0891	-0.600864	30.0775	0.526357	12.8645	-0.77534	0.00213623	0.00325928	0.77534	
11.3793	-1.78125	29.8617	4.98993	0.0234985	0.00335693	0.00610352	12.0923	-0.603588	30.0795	0.526391	12.8642	-0.77188	0.00218506	0.00266113	0.77188	
10.337	-1.3125	30.0211	4.99176	0.0244141	0.00305176	0.0247192	12.0948	-0.606817	30.0816	0.526427	12.864	-0.769102	0.00222168	0.00386963	0.769102	
18.6326	-0.78125	30.2019	5.00122	0.0247192	0.00152588	0.0234985	12.0976	-0.610361	30.0835	0.526462	12.8637	-0.766067	0.00220947	0.00673828	0.766067	
12.1177	-0.96875	29.6916	4.99115	0.0253296	0.00488281	0.017395	12.1021	-0.613999	30.0854	0.526494	12.8635	-0.761385	0.00229492	0.00810547	0.761385	
12.248	-9.78125	30.1912	4.9884	0.022583	0.00213623	-0.0137329	12.1074	-0.619069	30.0871	0.526524	12.8632	-0.755837	0.00224609	0.00727539	0.755837	
12.1177	-0.78125	30.1593	4.98901	0.0241089	0.00305176	-0.00915527	12.1126	-0.626884	30.0887	0.526553	12.863	-0.750439	0.00231934	0.00541992	0.750439	
11.6834	-1.125	29.7766	4.98871	0.0265503	0.00274658	-0.0289917	12.1175	-0.635971	30.0903	0.52658	12.8628	-0.745274	0.00234375	0.00473633	0.745274	
11.6399	-1.625	32.3494	4.99146	0.0256348	0.0012207	0.00274658	12.1221	-0.645069	30.0921	0.526611	12.8626	-0.740464	0.00230713	0.00366211	0.740464	
11.249	-1.34375	30.1593	4.98749	0.0234985	0.00396729	0.000915527	12.1262	-0.654336	30.0944	0.526652	12.8623	-0.736089	0.00241699	0.00354004	0.736089	
12.6823	-0.28125	30.4358	4.9884	0.0244141	0.00396729	-0.0201416	12.1298	-0.663586	30.0971	0.5267	12.8619	-0.732072	0.0026123	0.00369873	0.732072	
21.9769	0.0625	30.4145	4.97955	0.0241089	0.00396729	0.0115967	12.1349	-0.672387	30.0999	0.526749	12.8615	-0.726611	0.00262451	0.00537109	0.726611	
13.2035	-0.625	30.3932	4.98169	0.0247192	0.00152588	0.0305176	12.1432	-0.680585	30.1028	0.526799	12.8612	-0.718011	0.0026001	0.00599365	0.718011	
12.2914	-0.09375	30.1593	4.98535	0.0244141	0.00335693	0.032959	12.153	-0.688272	30.1057	0.52685	12.8608	-0.707815	0.00262451	0.00632324	0.707815	
12.8995	-0.53125	30.3188	4.98383	0.0241089	0.00213623	0.0167847	12.1628	-0.695473	30.1086	0.526901	12.8604	-0.69764	0.00262451	0.00577393	0.69764	
12.7692	-0.3125	29.8829	4.98688	0.0241089	0.00396729	-0.0167847	12.1726	-0.702219	30.1115	0.526951	12.86	-0.687473	0.00274658	0.00732422	0.687473	
12.4217	-0.5	32.4345	4.98413	0.0247192	0.00152588	-0.00946045	12.1823	-0.70855	30.1146	0.527005	12.8596	-0.677282	0.00267334	0.00566406	0.677282	
12.9864	-0.03125	30.4783	4.98169	0.0216675	0.00152588	-0.00488281	12.1921	-0.714428	30.1183	0.52707	12.8591	-0.66706	0.0026123	0.00633545	0.66706	
11.5531	-0.09375	30.4995	4.97955	0.0244141	0.00396729	-0.0204468	12.2017	-0.71976	30.1224	0.527142	12.8586	-0.656943	0.00266113	0.00489502	0.656943	
20.6305	0.0625	30.5421	4.98413	0.0241089	0.0012207	-0.0250244	12.2121	-0.724483	30.1266	0.527215	12.8581	-0.645919	0.0026001	0.00344238	0.645919	
11.7268	-2.53125	29.9892	4.98077	0.0241089	0.00152588	-0.00366211	12.2247	-0.72898	30.1308	0.527289	12.8575	-0.632825	0.00258789	0.00301514	0.632825	
11.4228	-7.3125	29.9892	4.98444	0.0244141	0.00152588	0.0210571	12.2378	-0.734777	30.1349	0.527361	12.857	-0.619162	0.00247803	0.00313721	0.619162	
12.4652	-1.125	30.0105	4.98108	0.0250244	0.00366211	0.0149536	12.2502	-0.742752	30.1387	0.527428	12.8565	-0.606285	0.00250244	0.0026001	0.606285	
11.7702	-1.59375	29.7979	4.9826	0.0241089	0.00335693	0.00335693	12.262	-0.751719	30.1423	0.527491	12.856	-0.594009	0.00279541	0.00228271	0.594009	
12.2914	-0.875	31.669	4.98047	0.0234985	0.000305176	-0.0012207	12.2733	-0.760711	30.1459	0.527553	12.8555	-0.582264	0.00267334	0.00250244	0.582264	
12.248	-0.90625	30.1487	4.97711	0.0247192	0.00488281	0.062561	12.2841	-0.769576	30.1498	0.527621	12.855	-0.57095	0.00273437	0.00462646	0.57095	
10.7279	-0.4375	30.2869	4.97955	0.0256348	0.00183105	0.000305176	12.2942	-0.778138	30.1538	0.527691	12.8545	-0.560249	0.00267334	0.00439453	0.560249	
22.6284	-0.875	29.9573	4.97925	0.0222778	0.00335693	0.0112915	12.3052	-0.786331	30.1576	0.527759	12.854	-0.548811	0.00268555	0.00385742	0.548811	
11.2925	-2.28125	29.7447	4.97955	0.0259399	0.00152588	-0.0109863	12.3185	-0.794443	30.1613	0.527822	12.8535	-0.534984	0.00268555	0.00247803	0.534984	
11.5965	-0.875	30.0743	4.97589	0.0256348	0.0012207	-0.0341797	12.3326	-0.802758	30.1646	0.52788	12.8531	-0.520494	0.00253906	0.000415039	0.520494	
13.4207	0.15625	30.2657	4.97284	0.0250244	0.00457764	-0.0274658	12.3459	-0.810886	30.1677	0.527935	12.8527	-0.506741	0.00263672	-0.000134277	0.506741	
13.5075	0.0625	30.5208	4.96765	0.0244141	0.00152588	-0.0183105	12.3592	-0.818304	30.1708	0.527989	12.8523	-0.493061	0.00257568	-0.000500488	0.493061	
12.8561	-0.21875	32.3813	4.97131	0.0265503	0.00152588	-0.015564	12.3726	-0.824946	30.1742	0.528049	12.8518	-0.4792	0.00252686	3.66211E-005	0.4792	
13.2469	-0.125	30.3294	4.97467	0.0253296	0.00274658	0.0283813	12.386	-0.830921	30.1783	0.528121	12.8513	-0.465262	0.00258789	0.00106201	0.465262	
11.5531	-0.46875	30.1593	4.97711	0.0247192	0.00335693	-0.0228882	12.3992	-0.836317	30.1827	0.528197	12.8507	-0.451548	0.00256348	0.000109863	0.451548	
22.889	-0.09375	30.2869	4.98322	0.0234985	0.0012207	0.00152588	12.4133	-0.841185	30.1869	0.52827	12.8502	-0.436813	0.00245361	0.000976563	0.436813	
13.0298	-2.09375	30.1593	4.98077	0.0265503	0.0012207	-0.00671387	12.4302	-0.845788	30.191	0.528342	12.8496	-0.419376	0.00234375	0.000244141	0.419376	
13.2904	5.875	30.1912	4.97345	0.0234985	0.00366211	0.0604248	12.4485	-0.849458	30.1949	0.528411	12.8491	-0.400606	0.0024292	0.00144043	0.400606	
13.7247	0.53125	30.2869	4.96979	0.0241089	0.000610352	-0.0274658	12.4667	-0.850892	30.1987	0.528478	12.8486	-0.381941	0.00231934	-0.000976563	0.381941	
13.5075	0.46875	30.2763	4.96887	0.022583	0.00274658	0.0311279	12.4849	-0.850599	30.2025	0.528543	12.8481	-0.363243	0.00234375	-0.000402832	0.363243	
11.944	-0.375	29.851	4.97772	0.0274658	0.00305176	-0.0326538	12.5029	-0.849619	30.206	0.528606	12.8476	-0.344774	0.00230713	-0.0010376	0.344774	
11.2056	-1.59375	29.8617	4.97589	0.0262451	0.00457764	0.00274658	12.52	-0.848436	30.2093	0.528664	12.8472	-0.327189	0.0024292	-0.000549316	0.327189	
10.945	-0.84375	29.8829	4.97467	0.0253296	0.00335693	0.0442505	12.5358	-0.847452	30.2123	0.528716	12.8468	-0.310988	0.00250244	0.00141602	0.310988	
18.1983	-0.71875	29.8298	4.98077	0.0265503	0.00152588	0.0363159	12.5513	-0.846597	30.215	0.528762	12.8465	-0.295203	0.00240479	0.00368652	0.295203	
