9.77234	4.65625	40.4825	4.97467	0.0259399	0.00457764	0.00335693	9.77234	4.65625	40.4825	0.708443	11.2983	-1.52593	0.00457764	0.00335693	1.52593	
9.8592	-0.125	40.6632	4.97162	0.0234985	0.00183105	-0.0262451	9.77235	4.65551	40.4825	0.708444	11.2983	-1.52591	0.00320435	-0.0114441	1.52591	
9.68547	0.5625	41.0034	4.9707	0.0234985	0.00457764	-0.015564	9.77238	4.65267	40.4827	0.708447	11.2982	-1.52586	0.00366211	-0.0128174	1.52586	
11.3793	0	39.8446	4.96704	0.0241089	0.00366211	0.0134277	9.77264	4.64721	40.4829	0.708451	11.2982	-1.52555	0.00366211	-0.0062561	1.52555	
8.72996	-0.53125	40.3443	4.97101	0.0247192	0.00335693	-0.015564	9.77322	4.63905	40.483	0.708453	11.2982	-1.52496	0.00360107	-0.00811768	1.52496	
8.77339	-1.1875	40.1529	4.98077	0.0265503	-0.00152588	0.0109863	9.77354	4.62795	40.4829	0.708451	11.2982	-1.52465	0.00274658	-0.00493368	1.52465	
7.64414	-0.65625	40.2805	4.97559	0.0234985	0.00274658	0.0216675	9.77305	4.61382	40.4827	0.708447	11.2982	-1.52518	0.00274658	-0.00113351	1.52518	
9.12085	-1.78125	40.4081	4.97314	0.0228882	0.00213623	0.0595093	9.77167	4.59665	40.4823	0.708441	11.2983	-1.52663	0.00267029	0.00644684	1.52663	
9.16428	3.90625	40.4187	4.97437	0.0256348	0.00274658	-0.0119019	9.7697	4.57717	40.4819	0.708433	11.2984	-1.52867	0.00267877	0.00440809	1.52867	
9.55518	-0.46875	40.4081	4.97528	0.0259399	0.00396729	0.00610352	9.76748	4.55641	40.4815	0.708425	11.2984	-1.53096	0.00280762	0.00457764	1.53096	
8.94712	-0.5625	40.7695	4.9762	0.0234985	0.00213623	-0.0143433	9.76505	4.53391	40.481	0.708418	11.2985	-1.53346	0.00274658	0.00285756	1.53346	
9.03398	-0.8125	40.5888	4.97589	0.0286865	0.00488281	0.050354	9.76231	4.50901	40.4807	0.708413	11.2986	-1.53626	0.0029246	0.00681559	1.53626	
8.33906	-1.53125	40.2805	4.97864	0.0271606	0.00549316	-0.0259399	9.75909	4.4816	40.4805	0.708408	11.2986	-1.53952	0.00312218	0.00429594	1.53952	
9.38145	-1.78125	40.3124	4.98077	0.0222778	0.00274658	-0.0134277	9.75537	4.4515	40.4802	0.708403	11.2987	-1.54329	0.00309535	0.00302996	1.54329	
12.0743	-0.28125	40.5888	4.97681	0.0222778	0.00427246	-0.00518799	9.7518	4.41885	40.4798	0.708397	11.2987	-1.54692	0.00317383	0.0024821	1.54692	
10.9016	-0.125	40.7057	4.97223	0.0265503	0.00366211	-0.0271606	9.7492	4.38421	40.4795	0.708391	11.2988	-1.54957	0.00320435	0.000629425	1.54957	
10.2067	5	40.6951	4.97345	0.0241089	0.00335693	0.0256348	9.74748	4.34875	40.4793	0.708388	11.2988	-1.55132	0.00321332	0.00210033	1.55132	
9.55518	-0.0625	40.6101	4.97528	0.0238037	0.00305176	0.00854492	9.74611	4.31336	40.4793	0.708387	11.2988	-1.5527	0.00320435	0.00245836	1.5527	
10.5976	-0.59375	40.3762	4.97681	0.0250244	0.00427246	0.0338745	9.74494	4.27719	40.4793	0.708387	11.2988	-1.55387	0.00326056	0.00411184	1.55387	
9.46831	-0.375	38.7814	4.97955	0.0244141	0.00213623	0.00518799	9.744	4.23938	40.479	0.708383	11.2989	-1.55486	0.00320435	0.00416565	1.55486	
9.33801	-0.8125	40.5994	4.97681	0.0244141	0.00427246	0.0146484	9.74307	4.19992	40.4782	0.708369	11.299	-1.55592	0.00325521	0.00466483	1.55592	
9.94607	-0.34375	40.6526	4.97772	0.0241089	0.000915527	0.00457764	9.74204	4.15887	40.4773	0.708352	11.2992	-1.55711	0.00314886	0.00466087	1.55711	
2.64939	0.15625	40.8546	4.97955	0.0247192	0.00335693	-0.0106812	9.73995	4.11647	40.4765	0.708338	11.2993	-1.55934	0.00315791	0.00399382	1.55934	
10.6844	0.09375	40.727	4.97101	0.0247192	0.00427246	0.0112915	9.7359	4.073	40.4759	0.708328	11.2994	-1.56348	0.00320435	0.00429789	1.56348	
9.64204	3.78125	40.4506	4.97742	0.0247192	0.00427246	0.038147	9.73118	4.02916	40.4755	0.708321	11.2995	-1.56827	0.00324707	0.00565186	1.56827	
7.90474	-1	40.1316	4.9881	0.0234985	0.00213623	-0.0350952	9.72646	3.98538	40.4751	0.708313	11.2995	-1.57307	0.00314941	0.00411377	1.57307	
8.59966	-0.71875	40.727	4.98596	0.0247192	0.00274658	-0.0280762	9.72115	3.94083	40.4746	0.708305	11.2996	-1.57846	0.00318604	0.00404053	1.57846	
9.03398	-0.75	41.2373	4.98322	0.0247192	0.00366211	-0.0558472	9.7153	3.89489	40.4742	0.708299	11.2997	-1.58437	0.00314941	0.0024292	1.58437	
9.42488	-0.84375	40.238	4.98322	0.0234985	0.00335693	-0.0183105	9.70921	3.84766	40.4742	0.708298	11.2997	-1.59047	0.00313721	0.00115967	1.59047	
9.64204	-0.34375	40.6632	4.98444	0.0241089	0.00335693	-0.00213623	9.70314	3.79926	40.4742	0.708298	11.2997	-1.59654	0.00313721	0.00169678	1.59654	
15.2883	-0.625	40.5144	4.98505	0.0271606	0.00457764	0.0564575	9.69808	3.74987	40.4742	0.708298	11.2997	-1.60159	0.00338135	0.00351563	1.60159	
8.81682	-0.90625	40.4293	4.98535	0.0256348	0.00244141	-0.0149536	9.69479	3.69948	40.4743	0.7083	11.2997	-1.60488	0.00336914	0.00205078	1.60488	
8.3825	4.21875	40.0679	4.98871	0.0241089	0.00427246	0.0234985	9.692	3.64883	40.4743	0.708299	11.2997	-1.60766	0.00345459	0.000610352	1.60766	
8.2522	-0.90625	40.1635	4.9884	0.0241089	0.00488281	-0.0292969	9.68855	3.59871	40.4741	0.708296	11.2997	-1.61115	0.00354004	-8.54492E-005	1.61115	
9.33801	-0.375	40.6632	4.9823	0.0241089	0.00335693	0.0177002	9.68451	3.54843	40.4737	0.708291	11.2997	-1.61524	0.00351563	0.000378418	1.61524	
10.4238	0.65625	39.3768	4.97833	0.0228882	0.00396729	-0.0323486	9.6804	3.49754	40.4733	0.708282	11.2998	-1.61943	0.00358887	-0.000341797	1.61943	
9.81577	0.09375	40.6526	4.98505	0.0244141	0.00518799	0.0305176	9.67663	3.44642	40.4726	0.70827	11.3	-1.62332	0.00360107	-0.00113525	1.62332	
10.1632	-0.28125	40.6313	4.98413	0.0250244	-0.00335693	0.0262451	9.67323	3.39504	40.4718	0.708256	11.3001	-1.62685	0.00324707	0.000952148	1.62685	
4.47356	-1.15625	40.7483	4.98993	0.0256348	0.00366211	0.0198364	9.66932	3.34309	40.4711	0.708245	11.3002	-1.63088	0.00328369	0.00228271	1.63088	
9.29458	-1.46875	40.6313	4.98749	0.0234985	0.00518799	0.00305176	9.66394	3.29025	40.4706	0.708236	11.3003	-1.63633	0.00332031	0.0026123	1.63633	
9.16428	3.875	40.44	4.98505	0.0228882	0.00213623	-0.0454712	9.65776	3.23718	40.4702	0.708229	11.3003	-1.64258	0.00325928	0.00187988	1.64258	
9.64204	-0.09375	40.6207	4.98749	0.0238037	0.00396729	0.00274658	9.65158	3.18491	40.4699	0.708224	11.3004	-1.64881	0.00328369	0.000964355	1.64881	
10.1632	0.03125	41.1097	4.98505	0.0253296	0.00396729	0.000915527	9.64562	3.13307	40.4697	0.70822	11.3004	-1.65481	0.00332031	0.00065918	1.65481	
9.90264	0.8125	40.5675	4.98383	0.0213623	0.00366211	0.0323486	9.64007	3.08121	40.4698	0.708222	11.3004	-1.66035	0.0032959	0.000598145	1.66035	
8.42593	-0.59375	40.5144	4.98657	0.0256348	0.00579834	0.00762939	9.63468	3.02943	40.47	0.708225	11.3004	-1.6657	0.00344238	0.000695801	1.6657	
9.20771	-1.53125	40.238	4.99725	0.0265503	0.00427246	0.0662231	9.62909	2.97727	40.4702	0.708228	11.3004	-1.67126	0.00344238	0.00275879	1.67126	
8.77339	-0.78125	40.2805	4.9881	0.0241089	0.00274658	0.0283813	9.62323	2.9244	40.4703	0.70823	11.3003	-1.6771	0.00351563	0.00371094	1.6771	
8.33906	-1.8125	40.5994	4.99237	0.0234985	0.00457764	0.000305176	9.61706	2.8708	40.4703	0.70823	11.3003	-1.68327	0.00356445	0.00415039	1.68327	
8.64309	3.53125	40.3443	4.99237	0.027771	0.00488281	0.0387573	9.61042	2.81715	40.4703	0.70823	11.3003	-1.68991	0.00358887	0.00524902	1.68991	
8.81682	-0.9375	40.642	4.99268	0.0253296	0.00274658	-0.0137329	9.6034	2.7643	40.4703	0.70823	11.3003	-1.69694	0.00352783	0.00317383	1.69694	
8.81682	-0.65625	40.7483	4.99054	0.0238037	0.00457764	0.000305176	9.5961	2.71173	40.4704	0.708232	11.3003	-1.70422	0.00362549	0.00458984	1.70422	
8.51279	-1.15625	39.4938	4.99512	0.0259399	0.00427246	-0.0180054	9.58853	2.65879	40.4704	0.708232	11.3003	-1.71179	0.00368652	0.00499268	1.71179	
7.94817	-0.875	40.3336	4.9942	0.0265503	0.00274658	0.0408936	9.58051	2.60545	40.4702	0.708228	11.3004	-1.71984	0.0036499	0.0088623	1.71984	
8.16533	-2.25	40.3443	4.9942	0.0247192	-0.00335693	0.0164795	9.57188	2.55156	40.4697	0.70822	11.3004	-1.72854	0.00338135	0.0102539	1.72854	
8.77339	-1.09375	40.4718	4.99176	0.0265503	0.00366211	-0.0234985	9.56275	2.49696	40.4692	0.708212	11.3005	-1.73777	0.00339355	0.00939941	1.73777	
10.1632	0.09375	40.8971	4.98596	0.0259399	0.00274658	-0.0131226	9.55356	2.44204	40.4688	0.708204	11.3006	-1.74703	0.00332031	0.00661621	1.74703	
9.9895	4.1875	40.5569	4.98688	0.0244141	0.00396729	0.0088501	9.54483	2.38804	40.4686	0.7082	11.3006	-1.7558	0.00338135	0.00756836	1.7558	
10.0329	-1.09375	40.6313	4.99298	0.0262451	0.00427246	0.00823975	9.53671	2.33558	40.4684	0.708197	11.3007	-1.76394	0.00338135	0.00695801	1.76394	
8.99055	-0.96875	40.8652	4.99237	0.0234985	0.00274658	0.0250244	9.52902	2.28367	40.4684	0.708197	11.3007	-1.77164	0.0032959	0.00913086	1.77164	
9.68547	-0.03125	40.9184	4.9939	0.0241089	0.00396729	0.0466919	9.52153	2.23168	40.4686	0.708201	11.3006	-1.77909	0.00332031	0.0102905	1.77909	
9.51174	-1.15625	40.6632	4.99298	0.0247192	0.00732422	-0.039978	9.51427	2.17978	40.4691	0.708209	11.3005	-1.78628	0.00345459	0.00998535	1.78628	
10.945	-0.65625	40.8121	4.98749	0.0216675	0.00274658	0.0476074	9.50751	2.12787	40.4697	0.708219	11.3004	-1.79293	0.00335693	0.0106689	1.79293	
13.7247	0.21875	40.8758	4.99237	0.0231934	0.00305176	0.0149536	9.50208	2.07611	40.4705	0.708233	11.3003	-1.79822	0.00361328	0.0102173	1.79822	
10.1632	-1.34375	40.9396	4.98566	0.0259399	0.00396729	-0.0527954	9.49849	2.02462	40.4715	0.708251	11.3001	-1.80165	0.00362549	0.00731201	1.80165	
8.86025	4.5625	40.6632	4.99023	0.0234985	0.00244141	0.0231934	9.49578	1.974	40.4727	0.708272	11.2999	-1.80415	0.00351563	0.00811768	1.80415	
7.94817	-1.53125	40.3017	4.99542	0.0259399	0.00274658	-0.0228882	9.49283	1.92489	40.4739	0.708294	11.2997	-1.80688	0.00354004	0.009021	1.80688	
8.94712	-1.09375	40.4506	4.9942	0.0244141	0.00396729	-0.000305176	9.48933	1.87637	40.4751	0.708315	11.2995	-1.81019	0.00354004	0.00889893	1.81019	
8.86025	-0.875	38.8771	4.99115	0.0247192	0.00213623	0.0305176	9.48544	1.82766	40.476	0.70833	11.2994	-1.81393	0.0034668	0.010083	1.81393	
8.94712	-0.59375	40.4825	4.99054	0.0231934	0.00457764	-0.00823975	9.48132	1.77899	40.4764	0.708336	11.2993	-1.81798	0.00350342	0.00845947	1.81798	
9.20771	-0.5	40.4931	4.99207	0.0244141	0.0012207	0.0308228	9.47705	1.73051	40.4765	0.708338	11.2993	-1.82224	0.00332031	0.00938721	1.82224	
3.21401	-0.84375	40.4506	4.99237	0.0247192	0.00152588	-0.015564	9.47179	1.68228	40.4765	0.70834	11.2993	-1.82749	0.00321045	0.00611572	1.82749	
9.29458	-1.71875	40.4506	4.99298	0.0271606	0.00366211	0.012207	9.4647	1.63408	40.4766	0.708341	11.2993	-1.83457	0.00324707	0.00546875	1.83457	
8.51279	3.46875	40.3336	4.99237	0.0234985	0.00366211	-0.0125122	9.45668	1.58642	40.4767	0.708342	11.2993	-1.84257	0.00321045	0.00495605	1.84257	
8.07847	-1.4375	40.2805	4.99054	0.0241089	0.00274658	0.0430298	9.44842	1.54003	40.4766	0.708341	11.2993	-1.85084	0.003125	0.00512695	1.85084	
9.77234	-0.5625	41.0885	4.9881	0.0247192	0.00335693	-0.045166	9.43992	1.49431	40.4766	0.70834	11.2993	-1.85934	0.00314941	0.00386963	1.85934	
10.5976	0.46875	42.1516	4.98444	0.0259399	0.00427246	0.0198364	9.4318	1.44894	40.477	0.708347	11.2992	-1.8674	0.00313721	0.00465088	1.8674	
9.81577	0	40.8227	4.98077	0.0231934	0.00396729	0.0149536	9.42443	1.40431	40.478	0.708366	11.299	-1.87459	0.003125	0.00596924	1.87459	
10.6844	-0.34375	40.8121	4.9823	0.0241089	0.00396729	0.00427246	9.41781	1.36038	40.4795	0.708391	11.2988	-1.88096	0.00317383	0.00450439	1.88096	
16.6781	-0.71875	40.3974	4.98566	0.0259399	0.00396729	0.0158691	9.41301	1.31693	40.481	0.708417	11.2985	-1.88551	0.0034668	0.00447998	1.88551	
9.77234	-0.53125	40.6632	4.98199	0.0241089	0.00274658	0.0265503	9.41089	1.27381	40.4825	0.708444	11.2983	-1.88738	0.00343018	0.00648193	1.88738	
9.94607	4.5625	40.642	4.98505	0.0231934	0.00305176	0.0491333	9.41016	1.23185	40.4841	0.708471	11.298	-1.88784	0.00344238	0.00897217	1.88784	
10.2067	-0.21875	40.3655	4.98383	0.0268555	0.00396729	0.027771	9.4098	1.19188	40.4856	0.708498	11.2977	-1.88794	0.00344238	0.009729	1.88794	
10.337	-0.25	41.0459	4.97772	0.0234985	0.00213623	-0.0369263	9.40993	1.15317	40.4872	0.708525	11.2975	-1.88755	0.00335693	0.00792236	1.88755	
11.1188	0.96875	39.8127	4.9762	0.0222778	0.00274658	-0.00427246	9.41073	1.11514	40.4887	0.708553	11.2972	-1.88648	0.00335693	0.00675049	1.88648	
9.46831	-0.84375	40.323	4.98566	0.0262451	0.00640869	-0.00274658	9.41219	1.07787	40.4901	0.708576	11.297	-1.8848	0.00345459	0.00477295	1.8848	
8.94712	-2.09375	40.3124	4.98413	0.0259399	-0.00457764	0.0354004	9.4138	1.0408	40.4912	0.708596	11.2968	-1.88299	0.00297852	0.00778809	1.88299	
6.16743	-0.96875	40.4718	4.98474	0.0265503	0.00213623	-0.00640869	9.41472	1.00345	40.4922	0.708613	11.2966	-1.8819	0.0029541	0.00562744	1.8819	
9.64204	-1.78125	40.3443	4.98535	0.0256348	0.00396729	-0.0369263	9.41456	0.96588	40.4931	0.708629	11.2965	-1.88191	0.00299072	0.00355225	1.88191	
9.03398	4.125	40.4825	4.98047	0.0265503	0.00183105	-0.00518799	9.41392	0.928958	40.4939	0.708644	11.2963	-1.88241	0.00290527	0.00545654	1.88241	
9.64204	-0.96875	40.5782	4.98199	0.0247192	0.00213623	0.00549316	9.41325	0.893602	40.4947	0.708657	11.2962	-1.88295	0.00289307	0.00474854	1.88295	
8.77339	-1.375	40.7695	4.98413	0.0259399	0.00213623	-0.000610352	9.41251	0.859052	40.4955	0.708672	11.2961	-1.88354	0.00286865	0.00563965	1.88354	
9.33801	-0.78125	40.5144	4.97772	0.0241089	0.00274658	-0.0363159	9.41163	0.824478	40.4964	0.708687	11.2959	-1.88427	0.00281982	0.00419922	1.88427	
8.2522	-0.96875	40.3655	4.98199	0.0256348	0.00457764	0.0418091	9.41048	0.789993	40.4973	0.708703	11.2958	-1.88528	0.00291748	0.00465088	1.88528	
9.03398	-2.03125	40.2273	4.98077	0.0265503	0.00457764	0.0820923	9.40894	0.755485	40.4981	0.708717	11.2956	-1.88669	0.00291748	0.00826416	1.88669	
12.248	-0.03125	40.6738	4.97437	0.0231934	0.00152588	-0.0601196	9.40759	0.720929	40.4988	0.708728	11.2955	-1.88792	0.00292969	0.00462646	1.88792	
11.2056	-0.125	40.642	4.96735	0.022583	0.00335693	0.00549316	9.4074	0.686787	40.4995	0.70874	11.2954	-1.88799	0.00300293	0.00546875	1.88799	
10.5976	4.21875	40.4187	4.97406	0.0259399	0.00335693	0.0637817	9.4084	0.654023	40.5002	0.708753	11.2953	-1.88688	0.00299072	0.00753174	1.88688	
9.90264	0.40625	40.5782	4.97101	0.0247192	0.00274658	0.0262451	9.41008	0.62335	40.5009	0.708765	11.2952	-1.88507	0.0029541	0.00908203	1.88507	
10.1632	-0.46875	40.8227	4.97589	0.0247192	0.00366211	-0.0271606	9.41216	0.594068	40.5016	0.708778	11.295	-1.88286	0.00299072	0.00627441	1.88286	
10.337	-1.03125	40.0572	4.97681	0.0234985	0.00305176	0.0119019	9.41462	0.565199	40.5024	0.708792	11.2949	-1.88027	0.00297852	0.00855713	1.88027	
9.68547	-1.15625	40.6207	4.97559	0.0241089	0.00396729	-0.00976563	9.41744	0.536415	40.503	0.708803	11.2948	-1.87734	0.00296631	0.00737305	1.87734	
10.0329	-0.34375	40.5994	4.97192	0.0222778	-0.00213623	0.0231934	9.42048	0.507731	40.5037	0.708814	11.2947	-1.8742	0.00272217	0.00770264	1.8742	
10.2501	-0.375	40.7483	4.97437	0.0234985	0.00274658	-0.0497437	9.42378	0.479389	40.5043	0.708826	11.2946	-1.87078	0.00267334	0.00554199	1.87078	
10.8582	-0.46875	40.9396	4.96735	0.0231934	0.00274658	-0.00457764	9.42753	0.451498	40.5052	0.70884	11.2944	-1.86689	0.00262451	0.00472412	1.86689	
9.64204	3.46875	40.323	4.97284	0.0244141	0.00335693	-0.00854492	9.43176	0.424634	40.5061	0.708857	11.2943	-1.86251	0.00264893	0.00332031	1.86251	
8.68652	-1.46875	40.1529	4.97925	0.0228882	0.00396729	0.0119019	9.43601	0.399222	40.5069	0.708872	11.2941	-1.85811	0.00268555	0.00183105	1.85811	
8.94712	-1.03125	40.4931	4.97528	0.0234985	0.00152588	-0.000610352	9.43984	0.374371	40.5076	0.708884	11.294	-1.85417	0.00258789	0.000695801	1.85417	
9.33801	-0.78125	40.7695	4.97467	0.0250244	0.00305176	-0.00488281	9.44325	0.349487	40.5083	0.708895	11.2939	-1.85065	0.00262451	0.00197754	1.85065	
9.72891	-1.125	40.4718	4.97681	0.0259399	0.00518799	-0.00427246	9.44647	0.324678	40.509	0.708907	11.2938	-1.84731	0.00272217	0.00197754	1.84731	
10.8582	-0.40625	40.4718	4.97101	0.0231934	0.00244141	0.0137329	9.44987	0.300001	40.5097	0.708919	11.2937	-1.84379	0.00256348	0.00263672	1.84379	
15.6357	0.03125	40.4081	4.97925	0.022583	0.00335693	0.0109863	9.45459	0.275703	40.5103	0.70893	11.2936	-1.83896	0.00288086	0.00166016	1.83896	
9.46831	-1.84375	40.3762	4.97528	0.0274658	0.00427246	-0.00762939	9.46128	0.251744	40.5109	0.70894	11.2935	-1.83218	0.00296631	0.00161133	1.83218	
8.59966	4.3125	40.0997	4.97406	0.0241089	0.00274658	0.0338745	9.46857	0.228567	40.5113	0.708947	11.2934	-1.82482	0.00291748	0.00444336	1.82482	
7.81787	-1.625	40.0253	4.97772	0.0244141	0.00427246	0.0109863	9.47508	0.206857	40.5114	0.70895	11.2934	-1.81828	0.00301514	0.00509033	1.81828	
9.9895	-0.15625	40.525	4.97192	0.0268555	0.00457764	-0.0415039	9.48079	0.185918	40.5114	0.708949	11.2934	-1.81258	0.00311279	0.00321045	1.81258	
11.249	0.40625	39.2173	4.96704	0.0247192	0.00305176	-0.0222778	9.48647	0.165358	40.5111	0.708944	11.2934	-1.80695	0.00314941	0.00234375	1.80695	
9.90264	0.4375	40.6526	4.97101	0.0210571	0.00457764	-0.000305176	9.49265	0.145582	40.5104	0.708932	11.2935	-1.80089	0.00322266	0.00378418	1.80089	
9.68547	0.21875	40.4931	4.97375	0.0256348	0.00274658	0.0576782	9.49904	0.126639	40.5096	0.708918	11.2937	-1.79464	0.00314941	0.00441895	1.79464	
4.43013	-0.90625	40.6313	4.97711	0.0247192	0.00152588	-0.0161743	9.50454	0.108275	40.5088	0.708905	11.2938	-1.78927	0.00302734	0.000488281	1.78927	
9.8592	-0.875	40.2805	4.97284	0.0253296	0.00427246	0.0259399	9.50835	0.0901017	40.5081	0.708892	11.2939	-1.78557	0.00313721	0.00393066	1.78557	
9.77234	5.15625	40.5994	4.97681	0.0247192	0.00305176	-0.0112915	9.5114	0.0728951	40.5074	0.708879	11.2941	-1.78265	0.003125	0.00325928	1.78265	
9.07742	-0.6875	40.7376	4.97345	0.0231934	0.00274658	0.0250244	9.5144	0.0576016	40.5067	0.708867	11.2942	-1.77976	0.00310059	0.00170898	1.77976	
10.5541	0.34375	40.9609	4.97009	0.0244141	0.00366211	0.0088501	9.51737	0.0434466	40.5062	0.708858	11.2943	-1.77688	0.00313721	0.00101318	1.77688	
9.90264	0.78125	42.3005	4.96948	0.0247192	0.00366211	0.00762939	9.52055	0.0298801	40.5062	0.708858	11.2943	-1.77371	0.00313721	0.00240479	1.77371	
8.59966	-0.71875	40.3124	4.97345	0.0238037	0.00396729	-0.010376	9.52375	0.0169531	40.5067	0.708868	11.2942	-1.77041	0.00317383	0.00151367	1.77041	
9.03398	-1.34375	40.1954	4.98047	0.0280762	0.00213623	-0.00732422	9.52653	0.00415674	40.5074	0.70888	11.294	-1.7675	0.00310059	0.00161133	1.7675	
16.5913	-0.84375	40.0891	4.97833	0.0265503	0.00366211	0.0350952	9.53002	-0.00885467	40.508	0.708889	11.294	-1.76393	0.00333252	0.0020874	1.76393	
8.1219	-1.71875	40.5675	4.97772	0.0234985	0.00152588	-0.0247192	9.53528	-0.0221431	40.5083	0.708895	11.2939	-1.75862	0.00328369	0.00308838	1.75862	
8.33906	3.90625	40.4931	4.97955	0.0234985	0.00305176	0.0106812	9.54083	-0.0350119	40.5085	0.708899	11.2939	-1.75302	0.0032959	0.00369873	1.75302	
9.46831	-0.65625	40.323	4.97681	0.0265503	0.00366211	0.00457764	9.54558	-0.046566	40.5087	0.708903	11.2938	-1.74824	0.00330811	0.00422363	1.74824	
9.16428	-1.0625	40.5994	4.97772	0.0247192	0.00274658	0.0112915	9.5499	-0.05745	40.5089	0.708906	11.2938	-1.74389	0.00325928	0.00419922	1.74389	
8.90369	-0.78125	39.6001	4.97925	0.0256348	0.00213623	-0.0378418	9.55383	-0.068471	40.5089	0.708906	11.2938	-1.73996	0.00328369	0.00270996	1.73996	
8.16533	-1.125	40.3017	4.98016	0.0262451	0.00701904	-0.00610352	9.55714	-0.0796464	40.5087	0.708901	11.2938	-1.73669	0.00344238	0.00266113	1.73669	
7.90474	-1.40625	40.4293	4.98199	0.0247192	-0.00335693	-0.0256348	9.55956	-0.0910706	40.5082	0.708893	11.2939	-1.73436	0.00310059	0.00180664	1.73436	
8.07847	-0.21875	40.5356	4.97589	0.0247192	0.00335693	0.0445557	9.56092	-0.102684	40.5076	0.708884	11.294	-1.73308	0.00313721	0.00303955	1.73308	
10.5976	-0.4375	40.7057	4.97589	0.0234985	0.00396729	-0.00640869	9.56169	-0.114182	40.5072	0.708875	11.2941	-1.7324	0.00316162	0.00234375	1.7324	
9.33801	3.0625	40.727	4.97894	0.0247192	0.00274658	-0.0509644	9.56248	-0.124902	40.5068	0.708869	11.2941	-1.73167	0.00310059	0.000610352	1.73167	
9.33801	-0.3125	40.7057	4.98108	0.0253296	0.00427246	-0.0463867	9.5633	-0.134337	40.5066	0.708865	11.2942	-1.73088	0.00316162	-0.0026001	1.73088	
9.03398	-0.46875	40.6845	4.98169	0.0250244	0.00457764	0.00946045	9.56391	-0.143053	40.5065	0.708864	11.2942	-1.73029	0.00317383	-0.00266113	1.73029	
9.42488	-0.4375	40.8758	4.98322	0.022583	0.00274658	-0.0161743	9.56427	-0.151638	40.5066	0.708865	11.2942	-1.72992	0.00310059	-0.00164795	1.72992	
8.99055	-0.09375	40.6951	4.98108	0.0253296	0.00549316	0.0283813	9.56441	-0.160052	40.5068	0.708869	11.2942	-1.72974	0.00319824	0.000378418	1.72974	
10.3804	0.03125	40.4718	4.97894	0.0247192	0.00457764	0.0552368	9.56447	-0.168164	40.5071	0.708875	11.2941	-1.72963	0.00319824	0.0026001	1.72963	
13.4207	-0.40625	40.7908	4.98016	0.0241089	0.00274658	0.0152588	9.56528	-0.175957	40.5075	0.708881	11.294	-1.72875	0.00319824	0.00090332	1.72875	
10.5107	-0.75	40.9928	4.97589	0.0228882	0.00274658	-0.0106812	9.56754	-0.183607	40.508	0.70889	11.2939	-1.7264	0.00324707	0.00112305	1.7264	
8.59966	2.71875	40.323	4.98322	0.0274658	0.00457764	0.0259399	9.57047	-0.190749	40.5087	0.708902	11.2938	-1.72336	0.00325928	0.00112305	1.72336	
7.90474	-1.21875	40.2592	4.98871	0.0253296	0.00244141	0.0149536	9.57287	-0.196985	40.5093	0.708913	11.2937	-1.72085	0.00323486	0.00217285	1.72085	
9.16428	-1.21875	40.2167	4.98932	0.0234985	0.00427246	-0.0216675	9.57446	-0.203026	40.5098	0.708921	11.2936	-1.71918	0.0032959	0.000305176	1.71918	
9.03398	-0.59375	40.4718	4.9881	0.0274658	0.00396729	-0.0411987	9.57552	-0.20939	40.5101	0.708927	11.2936	-1.71807	0.00330811	-0.00169678	1.71807	
8.59966	-0.9375	40.6951	4.99054	0.0241089	0.00427246	-0.0247192	9.57617	-0.215921	40.5104	0.708931	11.2935	-1.71738	0.00333252	-0.00299072	1.71738	
9.46831	-0.96875	40.3443	4.99023	0.0210571	0.000915527	0.0415039	9.57638	-0.222622	40.5106	0.708936	11.2935	-1.71712	0.00321045	-0.000915527	1.71712	
12.5086	-0.53125	40.4825	4.99237	0.0247192	0.00396729	0.0320435	9.57686	-0.22948	40.5109	0.70894	11.2935	-1.71659	0.00328369	0.00065918	1.71659	
8.51279	-1.65625	40.525	4.99054	0.0265503	0.00274658	0.0216675	9.57805	-0.236528	40.5111	0.708944	11.2934	-1.71537	0.00324707	0.00012207	1.71537	
7.47041	3.40625	40.3655	4.99054	0.0256348	0.00457764	0.017395	9.579	-0.243251	40.5112	0.708947	11.2934	-1.7144	0.00336914	0.00180664	1.7144	
8.33906	-1.59375	40.2167	4.99542	0.0256348	0.00488281	0.0213623	9.5789	-0.249036	40.5113	0.708948	11.2934	-1.71448	0.00344238	0.00223389	1.71448	
9.29458	-0.21875	40.9928	4.98901	0.0216675	0.00274658	-0.00488281	9.57805	-0.254464	40.5114	0.708949	11.2934	-1.71533	0.00340576	0.00185547	1.71533	
10.337	0.5	41.939	4.98596	0.0247192	0.00366211	-0.0570679	9.57706	-0.259782	40.5117	0.708955	11.2933	-1.71625	0.00344238	-0.000878906	1.71625	
10.0764	0.09375	40.4825	4.98779	0.0253296	0.00640869	0	9.57638	-0.264618	40.5126	0.70897	11.2932	-1.71679	0.00361328	0.000634766	1.71679	
10.5107	-0.34375	40.6632	4.9881	0.0234985	0.00274658	-0.0418091	9.57614	-0.269067	40.5136	0.708989	11.293	-1.71684	0.00344238	-0.000793457	1.71684	
15.9398	-1.125	40.8014	4.98657	0.0259399	0.00396729	-0.0570679	9.57727	-0.27346	40.5148	0.709008	11.2928	-1.71553	0.00373535	-0.00205078	1.71553	
8.94712	-2.09375	40.4931	4.99298	0.0256348	0.00457764	0.0161743	9.58037	-0.278258	40.5159	0.709029	11.2926	-1.71222	0.00378418	-0.00318604	1.71222	
9.29458	4.40625	40.4506	4.99054	0.020752	0.00213623	0.0241089	9.58412	-0.282855	40.5171	0.70905	11.2924	-1.70828	0.00371094	-0.00196533	1.70828	
9.8592	-0.125	40.5994	4.99237	0.0234985	0.00366211	-0.0292969	9.58759	-0.286094	40.5182	0.709069	11.2922	-1.70462	0.00374756	-0.00109863	1.70462	
10.2501	0.21875	40.7057	4.99146	0.0241089	0.00549316	0.0344849	9.59107	-0.288363	40.5194	0.709089	11.292	-1.70095	0.00379639	0.00213623	1.70095	
9.9895	-0.53125	39.834	4.98627	0.0247192	0.00244141	0.0430298	9.59475	-0.290408	40.5204	0.709107	11.2918	-1.6971	0.00371094	0.003479	1.6971	
8.81682	-0.90625	40.4825	4.99054	0.0256348	0.00610352	0.0198364	9.5984	-0.292473	40.5212	0.709121	11.2917	-1.69331	0.00384521	0.00491943	1.69331	
7.29668	-1.5625	40.323	4.99481	0.0262451	0.00152588	0	9.60138	-0.29489	40.5219	0.709133	11.2916	-1.69022	0.00368652	0.00378418	1.69022	
3.08372	-1.15625	40.5782	4.99542	0.0256348	0.00274658	0.00366211	9.60241	-0.297845	40.5224	0.709142	11.2915	-1.68909	0.00361328	0.00172119	1.68909	
8.77339	-1.375	40.4612	4.99298	0.0234985	0.00518799	0.0216675	9.60089	-0.301326	40.5229	0.709151	11.2914	-1.69052	0.00371094	0.00197754	1.69052	
9.20771	4.46875	40.6526	4.99542	0.0244141	0.00396729	-0.0228882	9.5981	-0.304412	40.5235	0.70916	11.2913	-1.69322	0.00375977	0.00148926	1.69322	
9.42488	-1	40.6313	4.99298	0.0265503	0.00213623	0.0161743	9.59513	-0.306182	40.524	0.70917	11.2912	-1.6961	0.00366211	0.00109863	1.6961	
8.59966	-1.09375	40.929	4.99237	0.0247192	0.00274658	-0.00762939	9.592	-0.307487	40.5246	0.709181	11.2911	-1.69913	0.00367432	0.000195313	1.69913	
8.1219	-1.09375	42.1091	4.99664	0.0274658	0.00549316	0.0408936	9.58842	-0.309221	40.5256	0.709198	11.291	-1.70254	0.00372314	0.00269775	1.70254	
8.33906	-1.5	40.238	4.99359	0.0247192	0.00488281	-0.000915527	9.58415	-0.311443	40.5271	0.709224	11.2907	-1.70655	0.00375977	0.00430908	1.70655	
8.99055	-1.65625	40.1742	4.99481	0.0256348	0.00427246	0.0268555	9.57933	-0.314287	40.5286	0.709251	11.2904	-1.71111	0.00375977	0.00637207	1.71111	
18.372	-0.90625	40.7057	4.99542	0.0265503	0.00457764	0.0265503	9.57567	-0.317723	40.53	0.709275	11.2902	-1.71455	0.00390625	0.00577393	1.71455	
10.5107	-0.375	40.9715	4.98444	0.0241089	0.00274658	0.0088501	9.57492	-0.321439	40.5313	0.709298	11.29	-1.71507	0.00385742	0.00484619	1.71507	
10.2067	4.03125	40.8546	4.98749	0.0238037	0.00396729	0.0280762	9.57595	-0.324457	40.5329	0.709325	11.2897	-1.71378	0.00390625	0.00510254	1.71378	
9.77234	-0.46875	40.5782	4.99176	0.0271606	0.00457764	-0.00640869	9.57732	-0.326049	40.5345	0.709354	11.2894	-1.71213	0.00390625	0.00415039	1.71213	
8.81682	-0.84375	40.8546	4.99084	0.0241089	0.00274658	0.0088501	9.57867	-0.327033	40.5362	0.709384	11.2892	-1.71049	0.0038208	0.0036499	1.71049	
8.77339	-1.21875	40.2167	4.99023	0.0231934	0.00305176	0.0363159	9.57965	-0.328303	40.5379	0.709414	11.2889	-1.70922	0.00383301	0.00529785	1.70922	
9.29458	-0.65625	40.6845	4.99146	0.0265503	0.00640869	-0.00701904	9.58018	-0.329937	40.5396	0.709442	11.2886	-1.70841	0.00394287	0.0072998	1.70841	
9.12085	-0.34375	40.8333	4.98993	0.022583	-0.00274658	0.00396729	9.58041	-0.331754	40.5412	0.70947	11.2883	-1.70791	0.00357666	0.0074585	1.70791	
10.5107	0.4375	40.7483	4.98749	0.0231934	0.00518799	-0.0149536	9.58059	-0.333443	40.5428	0.7095	11.288	-1.70745	0.00367432	0.00853271	1.70745	
10.7279	-0.625	40.7057	4.98749	0.0244141	0.00396729	0.0143433	9.58115	-0.334881	40.5446	0.709531	11.2877	-1.70658	0.00367432	0.0113892	1.70658	
9.12085	3.5625	40.5356	4.98688	0.0256348	0.00244141	0.0396729	9.58213	-0.335634	40.5464	0.709562	11.2874	-1.70531	0.00358887	0.0123291	1.70531	
8.16533	-2.09375	40.3868	4.9942	0.0262451	0.00366211	0.00366211	9.58289	-0.335468	40.5481	0.709592	11.2871	-1.70426	0.0036499	0.0115112	1.70426	
8.77339	-1.15625	40.6313	4.99481	0.0247192	0.00305176	-0.0210571	9.58298	-0.335377	40.5497	0.70962	11.2869	-1.70389	0.00362549	0.0118408	1.70389	
8.86025	-1.0625	41.3436	4.98749	0.0216675	0.00274658	0.0152588	9.58248	-0.335929	40.5514	0.70965	11.2866	-1.7041	0.00351563	0.0110718	1.7041	
9.81577	-1.1875	40.4718	4.98901	0.0247192	0.00549316	0.0140381	9.58169	-0.336947	40.5533	0.709682	11.2863	-1.70457	0.0036377	0.00991211	1.70457	
9.33801	-1.09375	40.5037	4.99146	0.0259399	0.00335693	0.0430298	9.58085	-0.338423	40.5552	0.709716	11.2859	-1.70509	0.00352783	0.0108398	1.70509	
14.1156	-0.46875	40.7057	4.99298	0.0234985	0.00213623	0.0241089	9.58071	-0.340233	40.557	0.709748	11.2856	-1.70493	0.00355225	0.0118042	1.70493	
9.33801	-2.84375	40.4931	4.98901	0.0271606	0.00335693	0.0115967	9.5819	-0.342526	40.5588	0.709779	11.2853	-1.70343	0.00357666	0.0121216	1.70343	
8.55623	1.375	40.2592	4.99237	0.0274658	0.00457764	0.050354	9.58352	-0.345268	40.5605	0.709808	11.285	-1.70153	0.00355225	0.013269	1.70153	
8.03503	-1.125	40.1423	4.98932	0.0210571	0.00152588	-0.0332642	9.58448	-0.347889	40.5619	0.709834	11.2848	-1.70032	0.00345459	0.012854	1.70032	
9.9895	-0.3125	40.4931	4.98444	0.0222778	0.00457764	0.0137329	9.58484	-0.350387	40.5631	0.709855	11.2846	-1.69976	0.00355225	0.0127563	1.69976	
10.9885	0.375	41.2692	4.98016	0.0256348	0.00244141	-0.0405884	9.58528	-0.352793	40.5643	0.709876	11.2844	-1.69911	0.00354004	0.011438	1.69911	
9.8592	-0.3125	40.5782	4.97955	0.0234985	0.00396729	-0.0161743	9.58625	-0.354877	40.5657	0.7099	11.2842	-1.69791	0.003479	0.00915527	1.69791	
9.12085	-0.28125	40.7057	4.98169	0.0241089	0.000305176	-0.0265503	9.58741	-0.356751	40.5672	0.709925	11.2839	-1.6965	0.0032959	0.00812988	1.6965	
13.1601	0.03125	40.642	4.99054	0.0244141	0.00274658	-0.00610352	9.58899	-0.358468	40.5686	0.709951	11.2837	-1.69467	0.00323486	0.00681152	1.69467	
9.51174	-2	40.6845	4.98138	0.0247192	0.00152588	-0.0210571	9.59153	-0.360248	40.5701	0.709977	11.2834	-1.69188	0.00311279	0.00490723	1.69188	
9.68547	4.375	40.5782	4.98474	0.0238037	0.00305176	0.0112915	9.59453	-0.361678	40.5716	0.710002	11.2832	-1.68863	0.003125	0.00500488	1.68863	
10.337	-0.4375	40.6632	4.98322	0.0244141	0.00518799	0.0582886	9.59756	-0.361855	40.573	0.710027	11.2829	-1.68536	0.00317383	0.00621338	1.68536	
9.64204	-0.59375	41.1735	4.97467	0.0253296	0.00274658	0.0088501	9.60073	-0.36135	40.5745	0.710054	11.2827	-1.68193	0.00310059	0.00682373	1.68193	
11.5531	0.125	41.8539	4.97711	0.0247192	0.00396729	0.0201416	9.60422	-0.360871	40.5764	0.710087	11.2823	-1.67813	0.00314941	0.00727539	1.67813	
9.9895	-1.125	40.4718	4.98444	0.0247192	0.00610352	0.0271606	9.60825	-0.360413	40.5787	0.710126	11.282	-1.67371	0.00327148	0.00690918	1.67371	
9.55518	-1.03125	40.2699	4.98383	0.0247192	0.00335693	0.0332642	9.61256	-0.360237	40.581	0.710167	11.2816	-1.66901	0.00314941	0.00852051	1.66901	
16.5913	-0.84375	40.1742	4.98566	0.0238037	0.00335693	-0.0375366	9.61784	-0.360469	40.583	0.710203	11.2812	-1.66338	0.00339355	0.00686035	1.66338	
9.33801	-2.15625	40.4718	4.98047	0.0259399	0.00274658	-0.0012207	9.62505	-0.361226	40.5848	0.710234	11.2809	-1.65587	0.0032959	0.00740967	1.65587	
9.51174	4.46875	40.7376	4.9765	0.0234985	0.00244141	0.0369263	9.63298	-0.361838	40.5865	0.710263	11.2806	-1.64766	0.00323486	0.00831299	1.64766	
9.64204	-0.53125	40.5356	4.97925	0.0241089	0.00274658	0.0241089	9.64055	-0.361235	40.5881	0.710291	11.2804	-1.63981	0.00324707	0.00769043	1.63981	
9.68547	-0.46875	40.3868	4.98199	0.0268555	0.00305176	-0.0704956	9.64784	-0.359973	40.5896	0.710318	11.2801	-1.63226	0.00322266	0.00472412	1.63226	
9.68547	-1.1875	39.313	4.98016	0.0259399	0.0012207	-0.0576782	9.6549	-0.358944	40.5908	0.710339	11.2799	-1.625	0.00314941	0.00325928	1.625	
9.12085	-1.375	40.323	4.98199	0.0241089	0.00640869	0.00854492	9.66164	-0.358383	40.5915	0.710351	11.2798	-1.61814	0.0032959	0.00299072	1.61814	
8.2522	-1.75	40.3017	4.9826	0.0253296	0.00396729	0.00335693	9.66776	-0.358501	40.5919	0.710357	11.2797	-1.61196	0.00323486	0.00256348	1.61196	
8.1219	-0.21875	40.7376	4.97345	0.0241089	0.0012207	-0.0149536	9.67291	-0.359183	40.5921	0.710361	11.2797	-1.60677	0.00314941	0.000244141	1.60677	
10.9885	-0.46875	40.8121	4.96857	0.0241089	0.00335693	-0.0088501	9.67738	-0.36003	40.5923	0.710366	11.2796	-1.60226	0.00319824	-0.00107422	1.60226	
10.337	5.34375	40.6526	4.97467	0.0238037	0.00335693	-0.000915527	9.68195	-0.359974	40.5927	0.710372	11.2796	-1.59762	0.00319824	-0.00157471	1.59762	
10.1632	0.125	40.6207	4.97101	0.0253296	0.00335693	0.038147	9.68685	-0.358093	40.5931	0.710379	11.2795	-1.59266	0.00314941	-0.00206299	1.59266	
10.3804	-0.53125	40.6207	4.97284	0.0265503	0.00274658	-0.0109863	9.69194	-0.355269	40.5935	0.710386	11.2794	-1.58751	0.00319824	-0.00117188	1.58751	
9.81577	-0.59375	42.3217	4.97467	0.0241089	0.00335693	-0.00823975	9.69715	-0.352561	40.5941	0.710397	11.2793	-1.58218	0.00314941	-0.00205078	1.58218	
9.68547	-0.21875	40.5675	4.97711	0.0234985	0.00518799	0.0262451	9.70233	-0.350029	40.5953	0.710418	11.2791	-1.57681	0.00325928	0.000622559	1.57681	
11.0319	-0.03125	40.4825	4.97192	0.0241089	0.00335693	-0.0265503	9.70754	-0.347534	40.5967	0.710442	11.2789	-1.57136	0.00323486	0.00020752	1.57136	
20.6305	0.625	40.7376	4.98047	0.0253296	0.00488281	0.0241089	9.71467	-0.344857	40.598	0.710465	11.2787	-1.56401	0.00341797	0.00223389	1.56401	
10.5976	-0.15625	40.8333	4.96918	0.022583	0.00274658	0.0109863	9.72528	-0.341894	40.5993	0.710488	11.2785	-1.55317	0.00341797	0.00291748	1.55317	
9.33801	3.375	40.4081	4.97589	0.0265503	0.00396729	0.0964355	9.73742	-0.33825	40.6007	0.710512	11.2782	-1.5408	0.00351563	0.00761719	1.5408	
8.68652	-1.125	40.1316	4.97711	0.0265503	0.00396729	0.0143433	9.74898	-0.333675	40.6019	0.710533	11.278	-1.52904	0.00355225	0.00773926	1.52904	
9.33801	-1.25	40.323	4.97467	0.0231934	0.00213623	0.0231934	9.75969	-0.329073	40.6028	0.710549	11.2779	-1.51817	0.00343018	0.00633545	1.51817	
8.77339	-0.25	40.3974	4.97711	0.0231934	0.00305176	0.00640869	9.76957	-0.325028	40.6035	0.710562	11.2777	-1.50817	0.00344238	0.00623779	1.50817	
8.77339	-0.03125	40.4931	4.97406	0.027771	0.00610352	0.0259399	9.77857	-0.321199	40.6041	0.710572	11.2776	-1.49907	0.00352783	0.00646973	1.49907	
9.33801	-0.28125	40.4506	4.97192	0.0247192	-0.00213623	0.0228882	9.78672	-0.317396	40.6045	0.71058	11.2776	-1.49084	0.00319824	0.00629883	1.49084	
11.8137	-0.71875	40.323	4.97955	0.0244141	0.00183105	-0.0219727	9.79461	-0.313733	40.6049	0.710585	11.2775	-1.4829	0.00313721	0.00408936	1.4829	
9.46831	-2.28125	40.3974	4.97589	0.0256348	0.00457764	-0.0012207	9.80272	-0.310624	40.6051	0.710588	11.2775	-1.47475	0.00318604	0.00554199	1.47475	
8.59966	3.90625	40.2805	4.97772	0.0253296	0.00213623	0.00183105	9.81058	-0.307644	40.6051	0.710589	11.2775	-1.4669	0.00316162	0.00566406	1.4669	
8.07847	-1.5625	40.0891	4.97589	0.0247192	0.00366211	0.000610352	9.81746	-0.303961	40.6049	0.710585	11.2775	-1.46005	0.00321045	0.00421143	1.46005	
10.1632	-0.21875	40.7057	4.97345	0.0256348	0.00396729	0.0149536	9.82343	-0.300131	40.6045	0.710578	11.2776	-1.45415	0.00325928	0.00384521	1.45415	
10.3804	0.40625	41.6838	4.96796	0.0250244	0.00152588	-0.00579834	9.82911	-0.296496	40.6042	0.710574	11.2776	-1.44851	0.00319824	0.00643311	1.44851	
10.1632	0	40.4718	4.96857	0.0247192	0.00579834	-0.0283813	9.83486	-0.292712	40.6043	0.710575	11.2776	-1.44274	0.00338135	0.00760498	1.44274	
9.38145	-0.28125	40.5356	4.97101	0.0256348	0.00396729	0.0112915	9.84053	-0.288859	40.6045	0.710579	11.2776	-1.43704	0.00328369	0.00771484	1.43704	
15.0277	-0.5	40.6101	4.97925	0.0234985	0.00396729	0.0259399	9.84672	-0.285126	40.6046	0.710581	11.2775	-1.43083	0.00328369	0.00861816	1.43083	
9.68547	-1.5625	40.4825	4.97284	0.0241089	0.00183105	-0.0256348	9.8542	-0.281787	40.6048	0.710583	11.2775	-1.42333	0.00330811	0.00819092	1.42333	
9.68547	1.21875	40.3655	4.97772	0.0247192	0.00366211	0.0601196	9.86214	-0.278764	40.6048	0.710584	11.2775	-1.41538	0.00332031	0.0109497	1.41538	
9.68547	0.15625	40.5144	4.97467	0.0228882	0.00213623	-0.0125122	9.8697	-0.275513	40.6047	0.710583	11.2775	-1.40784	0.00327148	0.0104858	1.40784	
9.8592	0.46875	40.727	4.9707	0.0222778	0.00396729	-0.00976563	9.8769	-0.271894	40.6046	0.710581	11.2776	-1.40065	0.0032959	0.00856934	1.40065	
10.945	0.53125	41.2692	4.96979	0.0265503	0.00457764	-0.0125122	9.88399	-0.267981	40.6046	0.710581	11.2776	-1.39357	0.00336914	0.0085083	1.39357	
7.81787	-0.46875	40.5675	4.97772	0.0241089	0.00396729	-0.0222778	9.89083	-0.263874	40.6049	0.710585	11.2775	-1.38668	0.00339355	0.00794678	1.38668	
7.73101	-1.09375	40.238	4.98169	0.0247192	0.00335693	-0.0112915	9.89661	-0.259979	40.6051	0.71059	11.2775	-1.38085	0.00332031	0.00644531	1.38085	
15.0277	-0.75	40.121	4.98444	0.0241089	0.00457764	0.00976563	9.902	-0.256587	40.6052	0.710591	11.2775	-1.37546	0.00336914	0.00789795	1.37546	
8.51279	-2.125	40.4825	4.97833	0.0247192	0.00274658	-0.00305176	9.90824	-0.253886	40.605	0.710588	11.2775	-1.36925	0.00328369	0.00681152	1.36925	
7.8613	5.40625	40.5037	4.97925	0.0234985	0.00457764	-0.017395	9.9143	-0.251059	40.6047	0.710582	11.2775	-1.36324	0.00335693	0.00567627	1.36324	
9.55518	-0.625	40.4293	4.97772	0.0241089	0.00274658	-0.00335693	9.91924	-0.246924	40.6043	0.710576	11.2776	-1.35836	0.00330811	0.00168457	1.35836	
9.03398	-0.40625	40.7483	4.98016	0.0241089	0.00213623	-0.00671387	9.92344	-0.242199	40.6039	0.710569	11.2777	-1.35423	0.00323486	0.000842285	1.35423	
8.86025	-0.375	41.6838	4.97833	0.0271606	0.00305176	0.0344849	9.92699	-0.237769	40.6038	0.710566	11.2777	-1.35071	0.00327148	0.00129395	1.35071	
8.07847	-1.4375	40.238	4.98016	0.0234985	0.00640869	0.00366211	9.92967	-0.233749	40.6039	0.710568	11.2777	-1.34801	0.00340576	0.00118408	1.34801	
9.03398	-1.8125	40.4293	4.98383	0.0241089	0.00213623	-0.0350952	9.93137	-0.23051	40.604	0.71057	11.2777	-1.34629	0.00324707	-0.00125732	1.34629	
18.1114	0.25	40.5569	4.97833	0.0250244	0.00366211	0.0476074	9.93371	-0.227988	40.604	0.71057	11.2777	-1.34395	0.003479	-0.000268555	1.34395	
10.5976	-1.125	40.4931	4.97528	0.0265503	0.00366211	-0.00183105	9.93847	-0.22579	40.604	0.710569	11.2777	-1.33919	0.00355225	0.000537109	1.33919	
9.64204	4.9375	40.4825	4.97833	0.0222778	0.00274658	0.062561	9.9445	-0.223073	40.6038	0.710567	11.2777	-1.33318	0.003479	0.00308838	1.33318	
9.55518	-0.15625	40.5994	4.98077	0.0244141	0.00366211	-0.0314331	9.95026	-0.218979	40.6037	0.710565	11.2777	-1.32745	0.00354004	0.00175781	1.32745	
9.55518	-0.46875	40.1848	4.98077	0.0259399	0.00457764	0.0192261	9.95559	-0.214248	40.6034	0.71056	11.2778	-1.32216	0.00357666	0.00250244	1.32216	
9.12085	-0.28125	39.7914	4.98199	0.0244141	0.00183105	-0.0158691	9.96041	-0.209762	40.603	0.710552	11.2778	-1.31742	0.00349121	0.00126953	1.31742	
8.86025	-0.21875	40.5356	4.97955	0.0228882	0.00640869	-0.00701904	9.96457	-0.205496	40.6022	0.710538	11.278	-1.31339	0.00368652	0.0012207	1.31339	
8.86025	0.03125	40.5356	4.98291	0.0259399	0.00396729	0.0195313	9.96795	-0.201359	40.6012	0.710522	11.2781	-1.31018	0.00361328	0.00313721	1.31018	
9.29458	0.40625	40.6526	4.98199	0.0247192	0.00213623	-0.043335	9.97058	-0.197203	40.6003	0.710506	11.2783	-1.3077	0.00354004	0.000952148	1.3077	
10.1198	-0.875	40.5356	4.9765	0.0219727	0.00366211	-0.0088501	9.97277	-0.193074	40.5994	0.71049	11.2784	-1.30567	0.00352783	-0.000439453	1.30567	
9.03398	5.28125	40.3655	4.98322	0.0268555	0.00457764	0.00427246	9.97467	-0.188358	40.5985	0.710474	11.2786	-1.30392	0.0036377	0.000756836	1.30392	
7.34011	-1.34375	40.4081	4.99115	0.0259399	0.00274658	-0.00274658	9.97583	-0.182396	40.5975	0.710457	11.2788	-1.30293	0.00360107	-0.00175781	1.30293	
8.42593	-0.96875	40.5675	4.98688	0.0259399	0.00396729	0.0448608	9.97574	-0.176277	40.5965	0.710439	11.2789	-1.30319	0.00367432	0.000537109	1.30319	
8.81682	-0.84375	42.5131	4.98749	0.0250244	0.00335693	-0.00946045	9.97458	-0.170902	40.5957	0.710425	11.2791	-1.30447	0.0036499	0.000549316	1.30447	
8.68652	-0.46875	40.5037	4.99115	0.0256348	0.00640869	0.00610352	9.97267	-0.166093	40.5956	0.710423	11.2791	-1.30641	0.00372314	0.00129395	1.30641	
9.64204	-0.40625	40.5144	4.98993	0.0247192	0.00274658	0.0454712	9.9702	-0.161689	40.5957	0.710425	11.2791	-1.30887	0.00367432	0.00400391	1.30887	
19.3709	-1.125	40.3762	4.99481	0.0259399	0.00396729	-0.0320435	9.96896	-0.157711	40.5957	0.710425	11.2791	-1.3101	0.00369873	0.00317383	1.3101	
8.46936	-2.09375	40.4931	4.99115	0.0241089	0.00457764	0.0616455	9.97041	-0.154512	40.5957	0.710424	11.2791	-1.30866	0.00369873	0.00524902	1.30866	
8.33906	2.1875	40.238	4.99237	0.0262451	0.00213623	0.0402832	9.97254	-0.151813	40.5955	0.710421	11.2791	-1.30656	0.00367432	0.00698242	1.30656	
8.1219	-1.90625	40.3655	4.99512	0.0265503	0.00335693	-0.00457764	9.97358	-0.149056	40.5951	0.710415	11.2792	-1.30558	0.00362549	0.00749512	1.30558	
8.77339	-0.65625	40.7589	4.9881	0.0231934	0.00213623	-0.0192261	9.97356	-0.146657	40.5947	0.710407	11.2792	-1.30567	0.00360107	0.00686035	1.30567	
10.4238	0.25	41.2586	4.98474	0.0234985	0.00213623	-0.00457764	9.97295	-0.144711	40.5944	0.710402	11.2793	-1.30633	0.00360107	0.0069458	1.30633	
9.29458	-0.21875	40.6526	4.98901	0.0259399	0.00762939	-0.0241089	9.97222	-0.142802	40.5944	0.710401	11.2793	-1.30708	0.00378418	0.00460205	1.30708	
9.03398	-0.3125	40.6951	4.98871	0.0253296	-0.0012207	0.000305176	9.97122	-0.140948	40.5945	0.710403	11.2793	-1.30806	0.003479	0.00446777	1.30806	
12.7692	0.125	40.6632	4.99878	0.0253296	0.00305176	-0.0354004	9.97029	-0.139183	40.5946	0.710406	11.2793	-1.30896	0.00351563	0.00445557	1.30896	
9.55518	-1.21875	40.5144	4.99115	0.0244141	0.00396729	-0.0296021	9.97006	-0.137592	40.5948	0.710408	11.2792	-1.30916	0.00352783	0.00136719	1.30916	
9.25115	4.84375	40.5782	4.98871	0.0247192	0.00305176	0.0112915	9.97003	-0.135578	40.5949	0.710411	11.2792	-1.30917	0.00350342	0.00189209	1.30917	
9.64204	-0.1875	40.6951	4.99176	0.0228882	0.00305176	0.00640869	9.96966	-0.132266	40.595	0.710413	11.2792	-1.30952	0.00351563	-0.000354004	1.30952	
10.0329	0.09375	40.8865	4.98688	0.0234985	0.00457764	-0.0180054	9.9691	-0.128279	40.5952	0.710417	11.2791	-1.31004	0.00355225	0.000183105	1.31004	
10.2501	-0.15625	42.024	4.98505	0.0241089	0.00274658	-0.00335693	9.96858	-0.124377	40.5957	0.710426	11.2791	-1.31048	0.003479	-0.000720215	1.31048	
8.51279	-1.21875	40.4931	4.99237	0.0256348	0.00518799	0.0167847	9.96794	-0.120756	40.5967	0.710443	11.2789	-1.31095	0.00361328	0.000585937	1.31095	
7.73101	-1.78125	40.1423	4.99634	0.0247192	0.00488281	0.0378418	9.96657	-0.117866	40.5978	0.710461	11.2787	-1.31214	0.00355225	0.00238037	1.31214	
15.158	-0.875	40.525	4.99481	0.0234985	0.00335693	0.0216675	9.96514	-0.115881	40.5986	0.710476	11.2786	-1.31343	0.00352783	0.00246582	1.31343	
9.03398	-2.25	40.4718	4.99664	0.0247192	0.00457764	-0.022583	9.96487	-0.114791	40.5993	0.710489	11.2784	-1.31357	0.00362549	0.0032959	1.31357	
8.07847	0.375	40.5782	4.99237	0.0253296	0.00396729	-0.00274658	9.96484	-0.114443	40.6	0.7105	11.2783	-1.3135	0.0036377	0.00354004	1.3135	
9.16428	-0.59375	40.5782	4.99542	0.0241089	0.00366211	0.00701904	9.96396	-0.114361	40.6006	0.71051	11.2782	-1.31428	0.00360107	0.0036499	1.31428	
8.77339	-0.78125	40.5782	4.98932	0.0222778	0.00396729	0.0143433	9.96238	-0.114458	40.6011	0.710519	11.2781	-1.31577	0.0036499	0.0043335	1.31577	
9.12085	-1.09375	41.418	4.9939	0.0283813	0.00366211	0.00640869	9.96023	-0.114985	40.6017	0.710531	11.278	-1.31781	0.0036377	0.00279541	1.31781	
8.03503	-1.21875	40.1954	4.9942	0.0244141	0.00396729	0.0549316	9.95742	-0.116072	40.6025	0.710545	11.2779	-1.32049	0.00366211	0.00537109	1.32049	
7.55728	-1.875	40.323	4.9942	0.0241089	0.00305176	0.00457764	9.9536	-0.117888	40.6033	0.710557	11.2778	-1.32418	0.00352783	0.00531006	1.32418	
17.9377	-0.21875	40.7589	4.98932	0.0274658	0.00518799	-0.072937	9.95012	-0.120372	40.6039	0.710568	11.2777	-1.32756	0.00362549	0.00057373	1.32756	
10.2935	-0.40625	40.8865	4.98413	0.0247192	0.00274658	0.0457764	9.94891	-0.123116	40.6045	0.710578	11.2776	-1.32866	0.00357666	0.00368652	1.32866	
10.3804	5.5625	40.6845	4.98901	0.0210571	0.00305176	0.00366211	9.94917	-0.124985	40.6052	0.710591	11.2775	-1.32829	0.00351563	0.00136719	1.32829	
9.51174	-0.53125	40.7908	4.98932	0.0247192	0.00366211	0.000305176	9.94953	-0.125131	40.606	0.710605	11.2773	-1.32779	0.00357666	-0.000231934	1.32779	
9.03398	-0.0625	40.9822	4.98688	0.0253296	0.00213623	-0.0183105	9.94967	-0.124505	40.6069	0.71062	11.2772	-1.3275	0.00352783	-0.00078125	1.3275	
9.59861	-0.5	42.1729	4.9884	0.0247192	0.00274658	-0.000915527	9.9494	-0.124003	40.6081	0.710642	11.277	-1.32756	0.00355225	-4.88281E-005	1.32756	
9.55518	-0.78125	40.6207	4.99176	0.0253296	0.00457764	-0.00579834	9.94882	-0.123729	40.6099	0.710672	11.2767	-1.32784	0.0036499	-9.76563E-005	1.32784	
10.641	-0.03125	40.6632	4.98566	0.0213623	0.00274658	-0.00457764	9.9482	-0.123711	40.6118	0.710706	11.2763	-1.32813	0.00345459	0.000683594	1.32813	
19.5447	0.34375	40.9184	4.98657	0.0247192	0.00396729	-0.00946045	9.94924	-0.123695	40.6137	0.71074	11.276	-1.32676	0.00366211	0.000292969	1.32676	
9.42488	-1.21875	40.9184	4.98444	0.0247192	0.00366211	-0.020752	9.95325	-0.12369	40.6157	0.710776	11.2757	-1.32241	0.00368652	0.000878906	1.32241	
9.03398	3.28125	40.3124	4.98535	0.0238037	0.00152588	0.0558472	9.9583	-0.123425	40.6178	0.710811	11.2753	-1.31702	0.00358887	0.00429688	1.31702	
8.42593	-1.4375	40.2592	4.99237	0.0274658	0.00305176	0.00762939	9.96257	-0.122486	40.6197	0.710844	11.275	-1.31243	0.00358887	0.00415039	1.31243	
8.2522	-1.84375	40.323	4.98749	0.0265503	0.00335693	-0.06073	9.9658	-0.121726	40.6212	0.710872	11.2747	-1.30893	0.00360107	0.00146484	1.30893	
8.77339	-0.71875	39.7489	4.98444	0.0216675	0.00274658	0.00976563	9.96796	-0.121825	40.6225	0.710894	11.2745	-1.30656	0.00352783	0.00257568	1.30656	
9.46831	-0.40625	40.6632	4.98444	0.0238037	0.00518799	0.038147	9.96933	-0.122416	40.6234	0.71091	11.2744	-1.30503	0.00362549	0.00423584	1.30503	
8.33906	-0.84375	40.3336	4.98535	0.0256348	0.00366211	0.00274658	9.97006	-0.12328	40.6241	0.710922	11.2742	-1.30418	0.00356445	0.00367432	1.30418	
8.33906	-0.78125	40.7483	4.9823	0.0253296	0.00244141	0.0314331	9.96993	-0.124482	40.6247	0.710932	11.2741	-1.30421	0.0034668	0.00341797	1.30421	
9.20771	-1.78125	40.5569	4.98383	0.0256348	0.00396729	0.00610352	9.96893	-0.126215	40.6253	0.710943	11.274	-1.30512	0.00349121	0.00279541	1.30512	
8.81682	4.78125	40.1954	4.98749	0.0265503	0.00366211	-0.0161743	9.96729	-0.127742	40.6258	0.710951	11.274	-1.30667	0.00345459	0.00305176	1.30667	
8.86025	-1.46875	40.323	4.98535	0.0256348	0.00305176	0.00640869	9.96506	-0.128156	40.626	0.710956	11.2739	-1.30885	0.00341797	0.00341797	1.30885	
10.2935	-0.34375	40.8546	4.97589	0.0241089	0.00457764	0.00640869	9.96244	-0.128244	40.6262	0.710958	11.2739	-1.31145	0.00345459	0.00339355	1.31145	
10.2501	-0.28125	42.9171	4.97742	0.0238037	0.00366211	-0.0119019	9.95989	-0.128627	40.6267	0.710967	11.2738	-1.31391	0.00344238	0.00234375	1.31391	
10.1632	-0.96875	40.5569	4.9765	0.0256348	0.00335693	0.00823975	9.9576	-0.129208	40.6279	0.710989	11.2736	-1.31599	0.00343018	0.00241699	1.31599	
10.5541	-0.375	40.727	4.97437	0.0250244	0.00152588	0.0592041	9.9556	-0.130091	40.6295	0.711016	11.2733	-1.31773	0.00333252	0.00258789	1.31773	
17.7205	0.3125	40.5569	4.97986	0.0216675	0.00366211	-0.0332642	9.95508	-0.13108	40.631	0.711042	11.2731	-1.31799	0.00335693	0.00107422	1.31799	
10.4238	-2.21875	40.5675	4.98077	0.0247192	0.00335693	-0.00946045	9.95716	-0.132259	40.6324	0.711067	11.2728	-1.31567	0.00328369	0.00361328	1.31567	
9.12085	3.90625	40.6951	4.98016	0.0250244	0.0012207	0.00396729	9.96039	-0.133349	40.6337	0.71109	11.2726	-1.31222	0.00322266	0.00194092	1.31222	
9.72891	-0.46875	40.727	4.97375	0.0241089	0.000610352	-0.0292969	9.96328	-0.133523	40.6351	0.711114	11.2724	-1.3091	0.003125	0.000622559	1.3091	
10.6844	0.40625	40.9184	4.96857	0.0241089	0.00213623	-0.0222778	9.96597	-0.133084	40.6364	0.711137	11.2721	-1.30618	0.00306396	-0.000280762	1.30618	
11.2056	-0.15625	41.7264	4.97284	0.0247192	0.00335693	-0.00762939	9.96895	-0.132549	40.638	0.711165	11.2719	-1.30293	0.00311279	0.000146484	1.30293	
9.03398	-0.96875	40.3762	4.97528	0.0259399	0.00213623	0.0427246	9.97218	-0.132086	40.6399	0.711198	11.2716	-1.29938	0.00308838	0.00189209	1.29938	
7.42698	-1.53125	40.2592	4.98077	0.0265503	0.00274658	-0.0180054	9.9748	-0.13212	40.6417	0.71123	11.2713	-1.29645	0.00301514	0.00140381	1.29645	
4.51699	-0.84375	40.4187	4.97894	0.0247192	0.0012207	0.0430298	9.97554	-0.132826	40.6433	0.711257	11.271	-1.29544	0.0029541	0.00330811	1.29544	
9.29458	-1.40625	40.4081	4.97772	0.0262451	0.00335693	-0.0106812	9.97406	-0.134144	40.6446	0.711281	11.2708	-1.29669	0.00292969	0.00325928	1.29669	
9.33801	4.15625	40.5888	4.97589	0.0250244	0.00213623	0.00396729	9.97148	-0.135254	40.6458	0.711302	11.2706	-1.29907	0.00286865	0.00424805	1.29907	
9.55518	-0.34375	40.4825	4.9762	0.0228882	0.00152588	0.00610352	9.96863	-0.135224	40.6469	0.711321	11.2704	-1.30174	0.00286865	0.0022583	1.30174	
9.42488	-0.875	40.8333	4.97833	0.0247192	0.00152588	0.00518799	9.96556	-0.134708	40.6479	0.711338	11.2702	-1.30464	0.00280762	0.00216064	1.30464	
9.25115	-0.34375	42.024	4.97559	0.0262451	0.00274658	-0.0134277	9.96225	-0.134505	40.6491	0.711359	11.27	-1.30774	0.0027832	0.00405273	1.30774	
8.51279	-1.375	40.1848	4.97406	0.0259399	0.00610352	0.0302124	9.95854	-0.134681	40.6507	0.711386	11.2697	-1.31119	0.00291748	0.00487061	1.31119	
9.03398	-1.96875	40.2805	4.9762	0.0247192	0.00457764	0.0418091	9.95425	-0.135553	40.6522	0.711413	11.2695	-1.31523	0.00289307	0.00501709	1.31523	
17.5902	-0.59375	40.6951	4.97101	0.0216675	0.00274658	-0.015564	9.95079	-0.137227	40.6534	0.711435	11.2693	-1.31847	0.00285645	0.00428467	1.31847	
10.7279	0.46875	40.6632	4.96582	0.0259399	0.00274658	-0.0228882	9.94979	-0.139174	40.6546	0.711456	11.2691	-1.31926	0.00286865	0.00211182	1.31926	
9.77234	4.46875	40.7483	4.97192	0.0241089	0.00274658	0.057373	9.95023	-0.14022	40.6558	0.711476	11.2689	-1.31863	0.00281982	0.0041626	1.31863	
9.9895	0.03125	40.525	4.97101	0.0259399	0.00427246	-0.0289917	9.95073	-0.139678	40.6569	0.711496	11.2687	-1.31794	0.00284424	0.0036499	1.31794	
9.64204	-0.53125	40.3443	4.97192	0.0265503	0.00152588	-0.0164795	9.95114	-0.138448	40.6579	0.711514	11.2685	-1.31735	0.0027832	0.00273437	1.31735	
9.55518	0.0625	39.8552	4.97162	0.0244141	0.00213623	0.0161743	9.95139	-0.137325	40.6587	0.711527	11.2684	-1.31697	0.00268555	0.003125	1.31697	
9.68547	-0.71875	40.44	4.97681	0.0234985	0.00701904	-0.00518799	9.95142	-0.136331	40.6591	0.711534	11.2683	-1.31688	0.00281982	0.00339355	1.31688	
8.90369	0.15625	40.5888	4.97528	0.0234985	0.00305176	-0.0216675	9.95114	-0.135476	40.6592	0.711537	11.2683	-1.31713	0.00280762	0.00219727	1.31713	
13.3772	0.96875	40.7057	4.97284	0.0234985	0.00305176	-0.0228882	9.95104	-0.134479	40.6594	0.711539	11.2683	-1.31721	0.00286865	-0.00108643	1.31721	
11.6399	-0.21875	40.5675	4.96735	0.0259399	0.00457764	-0.00335693	9.9521	-0.133143	40.6595	0.71154	11.2682	-1.31613	0.00290527	0.000109863	1.31613	
8.86025	4.65625	40.4506	4.97345	0.0241089	0.0012207	0.012207	9.95401	-0.130967	40.6595	0.711541	11.2682	-1.31421	0.00281982	0.000976563	1.31421	
8.72996	-1.03125	40.1104	4.98322	0.0280762	0.00518799	0.0292969	9.95559	-0.127534	40.6594	0.711539	11.2682	-1.31266	0.00297852	0.00198975	1.31266	
8.64309	-0.65625	40.7483	4.97772	0.0247192	0.00152588	-0.0299072	9.95636	-0.123841	40.6591	0.711534	11.2683	-1.31194	0.00301514	0.00196533	1.31194	
8.86025	-0.375	41.8752	4.97284	0.0228882	0.00274658	0.0387573	9.95633	-0.120622	40.6589	0.711531	11.2683	-1.312	0.00303955	0.00440674	1.312	
9.94607	-0.46875	40.1529	4.97772	0.022583	0.00549316	0.020752	9.95576	-0.117731	40.659	0.711533	11.2683	-1.31254	0.003125	0.00554199	1.31254	
9.9895	-0.1875	40.4081	4.97589	0.0265503	0.00335693	0.0357056	9.95504	-0.115102	40.6592	0.711536	11.2683	-1.31324	0.00317383	0.00526123	1.31324	
19.5447	-0.21875	40.4293	4.98657	0.0265503	0.00366211	0.0180054	9.95584	-0.112657	40.6591	0.711535	11.2683	-1.31245	0.00321045	0.00670166	1.31245	
9.25115	-2.84375	40.3443	4.9762	0.0259399	0.00366211	-0.0177002	9.95949	-0.110766	40.6589	0.711531	11.2683	-1.30884	0.00330811	0.00427246	1.30884	
8.72996	1.3125	40.2273	4.98016	0.0241089	0.00335693	0.0695801	9.96409	-0.109585	40.6585	0.711524	11.2684	-1.30431	0.00330811	0.00748291	1.30431	
7.73101	-0.78125	40.0891	4.98077	0.0265503	0.00274658	-0.0354004	9.96768	-0.108532	40.6578	0.711512	11.2685	-1.30083	0.00333252	0.0059082	1.30083	
9.59861	0.125	40.6207	4.97314	0.0259399	0.00305176	0.0320435	9.97021	-0.107469	40.657	0.711497	11.2687	-1.29845	0.00339355	0.0069458	1.29845	
10.5107	0.875	41.6838	4.97223	0.0238037	0.00274658	-0.0119019	9.97227	-0.106322	40.6562	0.711483	11.2688	-1.29653	0.00344238	0.00626221	1.29653	
8.59966	-0.625	40.7695	4.97467	0.0234985	0.00335693	-0.0119019	9.97415	-0.104956	40.6557	0.711475	11.2689	-1.29472	0.0034668	0.00632324	1.29472	
8.42593	-0.09375	40.6207	4.97681	0.0265503	0.00335693	-0.0454712	9.97538	-0.103644	40.6555	0.711471	11.2689	-1.29353	0.00335693	0.0032959	1.29353	
10.0329	-0.1875	40.4293	4.98047	0.0241089	0.00213623	-0.00793457	9.97589	-0.10247	40.6552	0.711466	11.269	-1.29306	0.00325928	0.00130615	1.29306	
9.64204	-1.09375	40.5994	4.97925	0.0253296	0.00396729	0.0247192	9.9761	-0.101515	40.6549	0.711461	11.269	-1.29291	0.00330811	0.00291748	1.29291	
8.77339	3.46875	40.5782	4.97955	0.0265503	-0.000305176	-0.0320435	9.97603	-0.100361	40.6545	0.711454	11.2691	-1.29305	0.00318604	0.00255127	1.29305	
9.68547	0.15625	40.6951	4.97833	0.0231934	0.00366211	0.0109863	9.97548	-0.098254	40.6541	0.711447	11.2691	-1.29366	0.00322266	0.000695801	1.29366	
9.9895	0.46875	41.0778	4.97711	0.0216675	0.00152588	-0.0234985	9.97469	-0.0955003	40.6538	0.711441	11.2692	-1.29451	0.00311279	0.000915527	1.29451	
11.2056	0.46875	42.2792	4.97589	0.0234985	0.00335693	0.000610352	9.97407	-0.0925411	40.6539	0.711443	11.2692	-1.29511	0.00318604	0.00159912	1.29511	
8.81682	-0.96875	40.3443	4.97955	0.0244141	0.00610352	0.0234985	9.97367	-0.0895599	40.6545	0.711454	11.2691	-1.2954	0.00334473	0.00189209	1.2954	
8.1219	-2.125	40.1954	4.98566	0.0262451	0.00396729	0.0180054	9.97284	-0.0871848	40.6552	0.711465	11.269	-1.29613	0.00322266	0.00281982	1.29613	
17.3296	-0.78125	40.4506	4.98749	0.0234985	0.00396729	-0.0149536	9.97242	-0.0857694	40.6556	0.711473	11.2689	-1.29647	0.00325928	0.00308838	1.29647	
8.86025	-1.78125	40.4506	4.98505	0.0231934	0.00396729	-0.00946045	9.97384	-0.0851987	40.6558	0.711477	11.2689	-1.29501	0.0032959	0.00362549	1.29501	
8.72996	1.09375	40.3017	4.98199	0.0265503	0.00213623	0.00579834	9.97581	-0.0850993	40.6559	0.711478	11.2688	-1.29302	0.00319824	0.0039917	1.29302	
8.3825	-0.71875	40.5356	4.9881	0.0259399	0.00366211	0.0222778	9.97691	-0.084999	40.6558	0.711477	11.2689	-1.29194	0.0032959	0.00439453	1.29194	
9.68547	-1.1875	40.1635	4.98169	0.0265503	0.00305176	0.0119019	9.97724	-0.0850871	40.6556	0.711473	11.2689	-1.29166	0.00321045	0.00369873	1.29166	
8.42593	-1.34375	39.0472	4.98505	0.0283813	0.00213623	0.0177002	9.97697	-0.0858078	40.6549	0.711461	11.269	-1.29203	0.00323486	0.00560303	1.29203	
8.33906	-0.96875	40.238	4.9881	0.0271606	0.00854492	0.0222778	9.97594	-0.0872015	40.6536	0.711439	11.2692	-1.29328	0.0034668	0.00494385	1.29328	
7.73101	-1.875	40.4718	4.99023	0.0234985	0.00274658	-0.0140381	9.97384	-0.0892924	40.652	0.71141	11.2695	-1.29566	0.00335693	0.00355225	1.29566	
5.12505	-0.65625	40.5675	4.98901	0.0256348	0.00274658	0.00396729	9.97012	-0.0920888	40.6503	0.71138	11.2698	-1.29967	0.00333252	0.00228271	1.29967	
9.8592	-0.78125	40.9396	4.97955	0.0231934	0.00244141	-0.00823975	9.96465	-0.0953461	40.6486	0.711351	11.2701	-1.30542	0.00328369	0.00123291	1.30542	
9.94607	4.9375	40.7057	4.98474	0.0250244	0.00213623	0.0109863	9.9586	-0.0980087	40.6471	0.711324	11.2703	-1.31174	0.00322266	0.00238037	1.31174	
8.55623	-0.15625	40.844	4.98444	0.0234985	0.00274658	-0.00793457	9.95251	-0.0991309	40.6457	0.7113	11.2706	-1.31805	0.00319824	-0.000720215	1.31805	
9.33801	-0.65625	40.8546	4.9884	0.0234985	0.00396729	0.022583	9.94611	-0.0995366	40.6445	0.711279	11.2708	-1.32466	0.00324707	0.00159912	1.32466	
8.51279	-0.375	41.7689	4.98871	0.0256348	0.00274658	0.000305176	9.93931	-0.100152	40.6436	0.711263	11.2709	-1.33162	0.00323486	0.00032959	1.33162	
9.33801	-0.84375	40.3443	4.9881	0.0250244	0.00488281	-0.00396729	9.93211	-0.101034	40.6431	0.711254	11.271	-1.33891	0.00332031	0.000646973	1.33891	
10.4238	0.125	40.6632	4.98444	0.0213623	0.00213623	-0.0482178	9.92484	-0.102122	40.6426	0.711246	11.2711	-1.34625	0.00327148	-0.000805664	1.34625	
20.1527	0.4375	40.7376	4.99176	0.0222778	0.00518799	0.0256348	9.91947	-0.103133	40.6422	0.711238	11.2712	-1.3517	0.00334473	0.00203857	1.3517	
9.81577	-0.46875	40.9077	4.9826	0.0247192	0.00213623	-0.00579834	9.91753	-0.103963	40.6418	0.711232	11.2712	-1.3537	0.00334473	0.00212402	1.3537	
8.46936	1.5625	40.4506	4.99237	0.0244141	0.00305176	0.0332642	9.91698	-0.104534	40.6416	0.711227	11.2713	-1.35429	0.00330811	0.00246582	1.35429	
8.59966	-1.53125	40.0891	4.99634	0.0244141	0.00305176	-0.00213623	9.91579	-0.104846	40.6412	0.711221	11.2713	-1.35555	0.00344238	0.00366211	1.35555	
8.42593	-1.28125	40.5356	4.9939	0.0274658	0.00396729	0.0262451	9.91378	-0.105513	40.6406	0.711211	11.2714	-1.35766	0.00345459	0.00427246	1.35766	
9.03398	-0.71875	41.5137	4.99542	0.0250244	0.00305176	-0.0204468	9.91103	-0.106838	40.6401	0.711201	11.2715	-1.3605	0.00351563	0.00439453	1.3605	
8.51279	-1.15625	40.5994	4.99054	0.0228882	0.00579834	0.00396729	9.90766	-0.108652	40.6398	0.711197	11.2716	-1.36392	0.00361328	0.00452881	1.36392	
9.12085	-0.78125	40.5994	4.99115	0.0234985	-0.00457764	0.0296021	9.90371	-0.110926	40.6397	0.711194	11.2716	-1.36788	0.00318604	0.00477295	1.36788	
8.1219	-0.65625	40.6738	4.99054	0.0259399	0.00213623	-0.0222778	9.89917	-0.113576	40.6395	0.711192	11.2716	-1.37245	0.00311279	0.00316162	1.37245	
8.42593	-2.5	40.4931	4.99237	0.0265503	0.00396729	0.0250244	9.89389	-0.116776	40.6394	0.711189	11.2717	-1.37776	0.00311279	0.00476074	1.37776	
8.07847	3.3125	40.4293	4.99573	0.0244141	0.00274658	-0.0131226	9.88778	-0.120155	40.6391	0.711185	11.2717	-1.38391	0.00306396	0.00461426	1.38391	
8.2522	-1.96875	40.3974	4.99481	0.0241089	0.00396729	0.00793457	9.88084	-0.123007	40.6388	0.711179	11.2717	-1.39091	0.00313721	0.00469971	1.39091	
8.86025	-0.375	40.9503	4.98688	0.0247192	0.00274658	-0.0265503	9.8732	-0.125838	40.6384	0.711172	11.2718	-1.39862	0.00310059	0.00274658	1.39862	
10.5107	0.125	40.0679	4.98871	0.0234985	0.00518799	0.0286865	9.86536	-0.128894	40.638	0.711164	11.2719	-1.40653	0.00318604	0.00341797	1.40653	
8.77339	-0.125	40.844	4.98627	0.022583	0.00518799	0.0378418	9.85766	-0.131803	40.6375	0.711156	11.272	-1.41431	0.00330811	0.00422363	1.41431	
9.64204	-0.84375	40.4931	4.99329	0.0280762	0.00396729	0.0305176	9.84997	-0.134678	40.637	0.711147	11.2721	-1.42209	0.003125	0.00455322	1.42209	
16.3307	-0.6875	40.6738	4.9939	0.0250244	0.00274658	-0.0302124	9.84332	-0.137758	40.6364	0.711138	11.2721	-1.42882	0.003125	0.00390625	1.42882	
8.46936	-1.21875	40.8546	4.99023	0.0247192	0.00152588	-0.0253296	9.83867	-0.141177	40.636	0.71113	11.2722	-1.43355	0.00307617	0.00273437	1.43355	
9.20771	3.59375	40.4506	4.99054	0.0234985	0.00274658	0.062561	9.83467	-0.144317	40.6356	0.711122	11.2723	-1.43762	0.00308838	0.00556641	1.43762	
9.68547	-0.3125	40.7483	4.99237	0.0247192	0.00396729	0.00701904	9.83038	-0.14638	40.6352	0.711115	11.2724	-1.44198	0.00316162	0.00540771	1.44198	
9.77234	0.21875	40.9928	4.98932	0.0231934	0.00213623	-0.0549316	9.82609	-0.147786	40.6348	0.71111	11.2724	-1.44633	0.00313721	0.00352783	1.44633	
9.77234	-0.59375	40.9077	4.98505	0.0241089	0.00244141	-0.010376	9.8219	-0.149124	40.6347	0.711107	11.2724	-1.45054	0.00307617	0.00220947	1.45054	
8.42593	-0.875	40.5356	4.99329	0.0271606	0.00457764	0.0299072	9.81762	-0.150608	40.6347	0.711107	11.2724	-1.45483	0.00314941	0.00339355	1.45483	
9.20771	-2.09375	40.3443	4.99817	0.027771	-0.00213623	0.0106812	9.81295	-0.152636	40.6346	0.711106	11.2725	-1.4595	0.00286865	0.00397949	1.4595	
5.9937	-0.96875	40.5675	4.99542	0.0247192	0.00152588	0.0308228	9.80745	-0.155433	40.6345	0.711103	11.2725	-1.46503	0.00284424	0.00714111	1.46503	
8.86025	-1.71875	40.5356	4.99268	0.0241089	0.00427246	-0.0109863	9.80072	-0.158929	40.6342	0.711099	11.2725	-1.4718	0.00280762	0.00567627	1.4718	
9.42488	4.21875	40.642	4.99146	0.0231934	0.00274658	0.0326538	9.79329	-0.162233	40.634	0.711095	11.2726	-1.47928	0.00283203	0.00721436	1.47928	
9.03398	-1.03125	40.3868	4.99207	0.0265503	0.00152588	-0.00274658	9.78573	-0.164439	40.6337	0.711089	11.2726	-1.48688	0.002771	0.00577393	1.48688	
8.59966	-0.78125	40.8333	4.98993	0.0241089	0.00213623	0.00335693	9.77797	-0.166252	40.6333	0.711083	11.2727	-1.4947	0.00273437	0.00599365	1.4947	
9.07742	-1.71875	41.8114	4.99115	0.0253296	0.00274658	-0.0350952	9.76989	-0.168568	40.6332	0.711081	11.2727	-1.50281	0.00268555	0.00354004	1.50281	
9.12085	-1.78125	40.1742	4.99725	0.0274658	0.00579834	0.017395	9.76159	-0.171629	40.6334	0.711085	11.2727	-1.51107	0.00279541	0.00505371	1.51107	
9.07742	-1.40625	40.4506	4.99359	0.0241089	0.00183105	0.0308228	9.75317	-0.175514	40.6336	0.711088	11.2726	-1.51945	0.00263672	0.00612793	1.51945	
18.1548	-0.15625	40.7483	4.98444	0.0244141	0.00213623	-0.00823975	9.74605	-0.179892	40.6337	0.71109	11.2726	-1.52656	0.00290527	0.00461426	1.52656	
11.1188	-1.625	40.642	4.98444	0.0234985	0.00366211	-0.0192261	9.74189	-0.184524	40.6338	0.711092	11.2726	-1.53071	0.00296631	0.00473633	1.53071	
9.64204	3.90625	40.8758	4.98566	0.0241089	0.00396729	0.0842285	9.73959	-0.188802	40.634	0.711094	11.2726	-1.53298	0.00296631	0.00710449	1.53298	
9.81577	-0.34375	40.7376	4.98657	0.0247192	0.00305176	-0.00518799	9.73757	-0.191907	40.6342	0.711099	11.2725	-1.53496	0.00297852	0.00742187	1.53496	
9.59861	-0.46875	40.4931	4.98749	0.0244141	0.00457764	-0.010376	9.7356	-0.194357	40.6345	0.711104	11.2725	-1.53688	0.00300293	0.00668945	1.53688	
9.64204	-0.84375	39.4619	4.98566	0.0238037	0.00213623	-0.00274658	9.73366	-0.196931	40.6345	0.711105	11.2725	-1.53881	0.00297852	0.0076416	1.53881	
9.51174	-0.25	40.6951	4.98596	0.0234985	0.00671387	0.0418091	9.73171	-0.199667	40.6342	0.711099	11.2725	-1.54082	0.00303955	0.0081665	1.54082	
9.20771	-0.28125	40.5356	4.98688	0.020752	0.00305176	-0.0460815	9.72965	-0.202435	40.6337	0.71109	11.2726	-1.54295	0.0029541	0.00480957	1.54295	
7.77444	0.21875	40.929	4.98383	0.0228882	0.00274658	0.00457764	9.72718	-0.205072	40.6333	0.711083	11.2727	-1.5455	0.00290527	0.00377197	1.5455	
10.3804	-0.625	40.8333	4.98016	0.0247192	0.00213623	0.00183105	9.7242	-0.207564	40.633	0.711077	11.2727	-1.54854	0.00288086	0.00505371	1.54854	
8.51279	4.90625	40.5675	4.98596	0.0265503	0.00335693	-0.0161743	9.72104	-0.209238	40.6328	0.711073	11.2728	-1.55173	0.0029541	0.00541992	1.55173	
8.3825	-1.34375	40.4081	4.98566	0.0244141	0.00213623	0.000915527	9.71751	-0.209507	40.6325	0.711069	11.2728	-1.5553	0.00292969	0.0029541	1.5553	
9.72891	-1.65625	40.6951	4.98566	0.022583	0.00274658	-0.0622559	9.7135	-0.209549	40.6322	0.711064	11.2729	-1.55936	0.00288086	0.000183105	1.55936	
9.55518	-1.28125	42.1304	4.98657	0.0259399	0.00305176	-0.00579834	9.70941	-0.210381	40.6322	0.711063	11.2729	-1.56346	0.00291748	0.00214844	1.56346	
9.46831	-0.78125	40.7695	4.98047	0.0234985	0.00518799	0.0601196	9.70538	-0.211829	40.6326	0.711071	11.2728	-1.56742	0.00302734	0.00496826	1.56742	
10.3804	-0.40625	40.5569	4.98077	0.0238037	0.00335693	-0.00732422	9.70149	-0.213599	40.6333	0.711083	11.2727	-1.57118	0.00297852	0.003479	1.57118	
19.1972	-0.21875	40.4718	4.99603	0.027771	0.00457764	0.0424194	9.6994	-0.215456	40.6339	0.711094	11.2726	-1.57318	0.00324707	0.00474854	1.57318	
8.42593	-2.34375	40.5994	4.98413	0.0271606	0.00213623	0.0183105	9.70022	-0.217609	40.6345	0.711103	11.2725	-1.57226	0.00327148	0.00424805	1.57226	
8.03503	2.625	40.3762	4.98322	0.0231934	0.00335693	0.0320435	9.70184	-0.219906	40.6349	0.711111	11.2724	-1.57056	0.00323486	0.00596924	1.57056	
8.59966	-0.84375	40.2592	4.98566	0.0259399	0.00396729	0.0216675	9.70252	-0.221666	40.6352	0.711116	11.2724	-1.56983	0.00328369	0.00552979	1.56983	
9.8592	-0.03125	40.7164	4.97345	0.0253296	0.00244141	-0.00701904	9.7026	-0.223086	40.6353	0.711118	11.2723	-1.56974	0.00332031	0.00535889	1.56974	
10.8582	0.375	40.4506	4.97284	0.0253296	0.00213623	-0.0204468	9.70273	-0.224401	40.6354	0.71112	11.2723	-1.56959	0.00332031	0.00440674	1.56959	
10.0764	-0.28125	40.5144	4.97223	0.0231934	0.00274658	-0.0256348	9.70329	-0.225463	40.6354	0.71112	11.2723	-1.56903	0.00332031	0.00478516	1.56903	
11.2056	-0.09375	40.6207	4.97284	0.0265503	-0.00366211	-0.0216675	9.70437	-0.226391	40.6353	0.711118	11.2723	-1.56796	0.00294189	0.00322266	1.56796	
6.68862	-0.21875	40.6632	4.9765	0.0253296	0.00213623	-0.0149536	9.70546	-0.227253	40.6353	0.711117	11.2723	-1.56688	0.0029541	0.0013916	1.56688	
9.77234	-1.40625	40.5144	4.97955	0.0250244	0.00366211	-0.015564	9.70582	-0.228245	40.6352	0.711115	11.2724	-1.56654	0.00301514	0.00109863	1.56654	
9.72891	4.1875	40.6207	4.97864	0.0244141	0.00213623	-0.0320435	9.70573	-0.22888	40.635	0.711113	11.2724	-1.56665	0.0029541	0.000585937	1.56665	
10.1632	0.4375	40.5994	4.97528	0.0244141	0.00396729	-0.0216675	9.70573	-0.228203	40.6349	0.71111	11.2724	-1.56668	0.0029541	-0.0036499	1.56668	
11.0319	0.03125	40.7376	4.97345	0.0259399	0.00457764	0.0195313	9.70608	-0.226617	40.6347	0.711108	11.2724	-1.56636	0.00301514	-0.00266113	1.56636	
10.7713	0.53125	42.0028	4.9704	0.0210571	0.00366211	0.0372314	9.70706	-0.224786	40.6348	0.71111	11.2724	-1.56536	0.00297852	-0.000756836	1.56536	
9.38145	-0.6875	40.3443	4.97467	0.0250244	0.00610352	0.00640869	9.70849	-0.222817	40.6353	0.711118	11.2723	-1.56384	0.00313721	-0.000390625	1.56384	
8.68652	-0.96875	40.1954	4.97986	0.0286865	0.00305176	0.0292969	9.70978	-0.221059	40.6359	0.711128	11.2722	-1.56246	0.00299072	-0.000891113	1.56246	
9.81577	-0.875	40.1954	4.97528	0.0253296	0.0012207	0.00915527	9.71068	-0.219768	40.6361	0.711132	11.2722	-1.56152	0.00291748	0.00131836	1.56152	
9.25115	-1.96875	40.4081	4.97589	0.0247192	0.00274658	0.00640869	9.71134	-0.219114	40.6361	0.711132	11.2722	-1.56086	0.00291748	0.0013916	1.56086	
8.77339	5.03125	40.6207	4.97314	0.027771	0.00244141	0.0491333	9.71171	-0.218312	40.636	0.71113	11.2722	-1.56051	0.00292969	0.00328369	1.56051	
10.2067	-1.15625	40.3443	4.97711	0.0265503	0.00244141	-0.0112915	9.71178	-0.216327	40.6358	0.711126	11.2723	-1.56048	0.00289307	0.003479	1.56048	
9.20771	-0.78125	40.5356	4.97589	0.0241089	0.00213623	-0.0106812	9.71178	-0.213976	40.6355	0.711121	11.2723	-1.56053	0.00289307	0.00301514	1.56053	
8.99055	-1.21875	38.6539	4.97528	0.0253296	0.0012207	0.0143433	9.71158	-0.212185	40.6348	0.711109	11.2724	-1.56084	0.00283203	0.0060791	1.56084	
8.29563	-1.09375	40.323	4.97559	0.0247192	0.00488281	0.0369263	9.71087	-0.210994	40.6335	0.711085	11.2727	-1.56178	0.00290527	0.00778809	1.56178	
9.16428	-1.53125	40.2592	4.97681	0.0244141	-0.00152588	0.00274658	9.70955	-0.21048	40.6317	0.711055	11.273	-1.5634	0.00263672	0.00549316	1.5634	
4.64729	0.28125	40.844	4.97437	0.0213623	0.00274658	0.0161743	9.70711	-0.210454	40.6299	0.711023	11.2733	-1.56616	0.0026123	0.00643311	1.56616	
10.2067	-1.21875	40.8227	4.96918	0.022583	0.00213623	0.0335693	9.70317	-0.210638	40.6282	0.710993	11.2736	-1.57039	0.00251465	0.0060791	1.57039	
9.51174	5.0625	40.5888	4.96918	0.0241089	0.00152588	-0.00152588	9.69871	-0.210234	40.6266	0.710965	11.2738	-1.57511	0.00249023	0.00528564	1.57511	
9.90264	-0.09375	40.4506	4.97559	0.0256348	0.00518799	0.0112915	9.69446	-0.208346	40.6251	0.710938	11.2741	-1.57962	0.00256348	0.00445557	1.57962	
9.59861	-0.34375	40.8227	4.97284	0.0247192	0.000915527	-0.0482178	9.69037	-0.205692	40.6236	0.710912	11.2743	-1.58396	0.00244141	0.00166016	1.58396	
9.72891	-0.46875	42.1516	4.97467	0.0250244	0.00366211	-0.0424194	9.68645	-0.203197	40.6224	0.710892	11.2745	-1.58809	0.00249023	0.000244141	1.58809	
9.51174	-0.09375	40.5675	4.9765	0.0250244	0.00183105	0.0088501	9.68263	-0.200877	40.6217	0.71088	11.2746	-1.59202	0.00247803	0.00141602	1.59202	
10.8582	0.03125	40.6738	4.97437	0.0238037	0.00152588	0.00762939	9.67908	-0.198609	40.6213	0.710874	11.2747	-1.59563	0.0024292	0.00274658	1.59563	
14.2459	0.625	40.7695	4.96857	0.0222778	0.00274658	0.032959	9.6767	-0.196206	40.621	0.710867	11.2748	-1.59807	0.00268555	0.00493164	1.59807	
10.5107	-0.0625	40.8333	4.96704	0.0259399	0.00335693	-0.00518799	9.67614	-0.193575	40.6208	0.710863	11.2748	-1.59867	0.00273437	0.00532227	1.59867	
8.81682	4.21875	40.2592	4.97223	0.0241089	0.00274658	0.0442505	9.67643	-0.190185	40.6206	0.71086	11.2748	-1.59842	0.00269775	0.00771484	1.59842	
8.51279	-0.84375	40.121	4.97772	0.0228882	0.00152588	0.00854492	9.67639	-0.185626	40.6202	0.710853	11.2749	-1.59851	0.00267334	0.00933838	1.59851	
8.59966	-0.46875	40.4081	4.97772	0.0238037	0.00213623	0.0195313	9.6757	-0.180791	40.6196	0.710843	11.275	-1.59931	0.0026001	0.0109863	1.59931	
8.77339	-0.21875	38.6645	4.97894	0.0253296	0.00396729	-0.0210571	9.67437	-0.176323	40.6186	0.710826	11.2752	-1.60081	0.00257568	0.00936279	1.60081	
8.72996	-0.59375	40.3868	4.97711	0.0259399	0.00366211	0.0012207	9.6725	-0.172134	40.617	0.710797	11.2755	-1.60296	0.00257568	0.00792236	1.60296	
9.33801	-0.1875	40.4506	4.97559	0.0247192	-0.0012207	-0.00213623	9.6702	-0.168233	40.615	0.710762	11.2758	-1.60559	0.00228271	0.00758057	1.60559	
12.5955	-0.875	40.5037	4.98199	0.0253296	0.00366211	0.0244141	9.6682	-0.164649	40.6129	0.710726	11.2761	-1.60794	0.00230713	0.00738525	1.60794	
8.86025	-1.40625	40.4187	4.97833	0.0262451	0.00396729	0.0396729	9.66699	-0.161606	40.6109	0.710691	11.2765	-1.60949	0.00241699	0.00860596	1.60949	
8.33906	4.875	40.1529	4.97772	0.0247192	0.00213623	-0.0476074	9.66583	-0.158386	40.6088	0.710653	11.2768	-1.61102	0.00239258	0.00644531	1.61102	
7.60071	-1.1875	40.3868	4.98169	0.0241089	0.00457764	0.010376	9.66385	-0.154069	40.6065	0.710614	11.2772	-1.61338	0.00247803	0.00489502	1.61338	
9.55518	0.0625	40.9184	4.97284	0.0253296	0.00335693	-0.0292969	9.66107	-0.149411	40.6042	0.710574	11.2776	-1.61654	0.00251465	0.0041748	1.61654	
10.5541	0.71875	41.4712	4.97284	0.0241089	0.00457764	0.0534058	9.65818	-0.144875	40.6023	0.71054	11.278	-1.61977	0.0026123	0.00673828	1.61977	
9.90264	-0.15625	40.6632	4.97437	0.0247192	0.00579834	-0.0112915	9.65569	-0.140199	40.6007	0.710512	11.2782	-1.62253	0.00279541	0.00571289	1.62253	
10.0764	0.09375	40.7908	4.9762	0.0238037	0.00335693	0.0146484	9.65357	-0.135522	40.5993	0.710488	11.2785	-1.62488	0.00273437	0.00482178	1.62488	
15.2448	-0.25	40.4081	4.98383	0.0259399	0.00396729	-0.010376	9.65256	-0.130959	40.5981	0.710466	11.2787	-1.62611	0.0029541	0.00429688	1.62611	
10.0329	-2.46875	40.5144	4.97803	0.0265503	0.00274658	0.0125122	9.65344	-0.126919	40.5968	0.710444	11.2789	-1.62544	0.0029541	0.00415039	1.62544	
9.20771	5.03125	40.6738	4.97833	0.0241089	0.00274658	-0.0241089	9.65521	-0.122966	40.5955	0.710422	11.2791	-1.62388	0.00297852	0.00184326	1.62388	
10.2067	-0.59375	40.5994	4.97711	0.0222778	0.00335693	-0.00213623	9.65692	-0.117989	40.5943	0.710401	11.2793	-1.62238	0.00305176	0.00181885	1.62238	
10.8582	-0.15625	40.6526	4.97467	0.0256348	0.00274658	-0.00488281	9.65886	-0.11254	40.5932	0.710381	11.2795	-1.62063	0.0029541	0.00117188	1.62063	
10.1632	0.1875	39.1961	4.97681	0.0241089	0.00366211	-0.00213623	9.66127	-0.107323	40.5919	0.710358	11.2797	-1.61844	0.00306396	0.00301514	1.61844	
8.42593	-0.46875	40.238	4.9826	0.0234985	0.00457764	0.00427246	9.66374	-0.10226	40.5902	0.710328	11.28	-1.61626	0.00310059	0.00488281	1.61626	
8.03503	-1.625	40.1529	4.98505	0.0292969	0.0012207	0.00396729	9.66557	-0.0976798	40.5881	0.710292	11.2804	-1.61478	0.00307617	0.0046875	1.61478	
8.33906	-1.09375	40.4506	4.98413	0.0265503	0.00488281	0.0231934	9.66643	-0.0939451	40.5859	0.710253	11.2807	-1.6143	0.00321045	0.00531006	1.6143	
8.51279	-1.125	40.4187	4.98596	0.0234985	0.00152588	-0.0088501	9.66642	-0.0910486	40.5836	0.710214	11.2811	-1.61469	0.00316162	0.0036377	1.61469	
8.64309	3.5	40.4506	4.98322	0.0238037	0.00213623	-0.0552368	9.66568	-0.0881725	40.5814	0.710174	11.2815	-1.61582	0.00311279	0.00163574	1.61582	
8.94712	-0.53125	40.3443	4.98444	0.0253296	0.00274658	0.0466919	9.66436	-0.0845131	40.5791	0.710134	11.2819	-1.61752	0.00311279	0.0017334	1.61752	
9.20771	-1.125	40.844	4.98199	0.0262451	0.00213623	-0.0360107	9.66264	-0.0807254	40.5768	0.710094	11.2823	-1.61963	0.00313721	-4.88281E-005	1.61963	
9.12085	-0.90625	40.7589	4.98474	0.0256348	0.00213623	0.0210571	9.66064	-0.077592	40.5747	0.710057	11.2826	-1.62199	0.00313721	1.2207E-005	1.62199	
7.51384	-1.28125	40.4081	4.98749	0.0231934	0.00366211	-0.0149536	9.65814	-0.0751744	40.5727	0.710023	11.283	-1.62483	0.003125	0.000256348	1.62483	
9.12085	-1.28125	40.0997	4.99298	0.0265503	0.00518799	-0.0378418	9.65489	-0.0735315	40.5707	0.709988	11.2833	-1.62841	0.00318604	-0.00130615	1.62841	
10.5976	0.09375	40.7483	4.98138	0.0231934	0.00274658	0.00762939	9.65141	-0.0724822	40.5687	0.709952	11.2837	-1.63225	0.00334473	-0.000915527	1.63225	
9.90264	-0.78125	40.5888	4.98199	0.0241089	0.00366211	-0.0158691	9.6483	-0.0717154	40.5667	0.709917	11.284	-1.6357	0.00334473	-0.00252686	1.6357	
8.94712	5.125	40.5994	4.98749	0.0241089	0.00213623	0.0161743	9.64541	-0.0703637	40.5648	0.709883	11.2843	-1.63891	0.00327148	-0.0034668	1.63891	
8.55623	-0.59375	40.7483	4.98688	0.0262451	0.00152588	-0.00518799	9.64228	-0.0676385	40.563	0.709852	11.2846	-1.64234	0.00324707	-0.00177002	1.64234	
8.86025	-0.6875	40.7164	4.9884	0.0216675	0.00274658	0.0143433	9.63869	-0.0644623	40.5613	0.709823	11.2849	-1.64621	0.00317383	-0.00161133	1.64621	
9.29458	-0.5625	39.2386	4.99054	0.0234985	0.00305176	0.00335693	9.63477	-0.0617498	40.5596	0.709793	11.2852	-1.65042	0.00316162	-0.000305176	1.65042	
9.12085	-0.71875	40.5675	4.98566	0.0244141	0.00701904	-0.0137329	9.63067	-0.0594864	40.5576	0.709758	11.2855	-1.65486	0.00325928	-0.00299072	1.65486	
9.64204	0.1875	40.5356	4.99115	0.0241089	-0.00579834	0.00701904	9.62651	-0.0575463	40.5554	0.70972	11.2859	-1.65939	0.00279541	-0.0022583	1.65939	
4.77759	0.40625	40.8971	4.98657	0.0234985	0.00366211	0.00640869	9.62167	-0.0556286	40.5534	0.709684	11.2863	-1.66458	0.00280762	-0.00258789	1.66458	
10.2067	-1.78125	40.6313	4.98444	0.0247192	0.00457764	0.00274658	9.61559	-0.0538645	40.5515	0.709651	11.2866	-1.67097	0.00283203	-0.00206299	1.67097	
8.46936	2.59375	40.525	4.99176	0.0247192	0.00213623	-0.0582886	9.60898	-0.0522159	40.5498	0.709621	11.2869	-1.67788	0.00280762	-0.00489502	1.67788	
8.03503	-1.28125	40.3868	4.99664	0.0271606	0.0106812	-0.00610352	9.6021	-0.0502628	40.5481	0.709592	11.2871	-1.68505	0.003125	-0.0041748	1.68505	
8.68652	-1.15625	40.6845	4.9939	0.0253296	0.00427246	0.000915527	9.59464	-0.0485212	40.5465	0.709563	11.2874	-1.69278	0.00316162	-0.00405273	1.69278	
8.94712	-0.90625	40.4081	4.99451	0.0259399	0.00244141	-0.0228882	9.58683	-0.0475085	40.5449	0.709535	11.2877	-1.70086	0.00314941	-0.00477295	1.70086	
8.94712	-0.96875	40.4931	4.99573	0.0259399	0.00640869	-0.00183105	9.57885	-0.0471126	40.5433	0.709508	11.288	-1.70911	0.00325928	-0.00476074	1.70911	
10.1632	-0.8125	40.4612	4.9939	0.0241089	0.00152588	0.0357056	9.57095	-0.0472685	40.5417	0.70948	11.2882	-1.71728	0.00313721	-0.00350342	1.71728	
9.29458	-0.71875	40.5994	4.99023	0.0247192	0.00244141	0.00793457	9.56336	-0.0479036	40.5402	0.709453	11.2885	-1.72512	0.00318604	-0.00334473	1.72512	
8.20876	-0.96875	40.5782	4.9942	0.0265503	0.00305176	-0.0192261	9.55584	-0.0489862	40.5387	0.709428	11.2887	-1.73289	0.00311279	-0.0050415	1.73289	
8.42593	3.625	40.1104	4.99695	0.0259399	0.0012207	-0.0234985	9.54795	-0.0498502	40.5373	0.709402	11.289	-1.74103	0.00310059	-0.00562744	1.74103	
7.47041	-1.15625	40.0679	4.99725	0.0244141	0.00274658	-0.0558472	9.53946	-0.049858	40.5357	0.709374	11.2893	-1.7498	0.003125	-0.00565186	1.7498	
10.0764	-0.90625	40.7483	4.99084	0.0241089	0.00396729	-0.0234985	9.53053	-0.0497716	40.5339	0.709344	11.2896	-1.75902	0.00317383	-0.00845947	1.75902	
10.0764	-0.34375	39.1748	4.98383	0.0241089	0.00213623	0.0601196	9.52185	-0.0501712	40.532	0.709311	11.2899	-1.76802	0.00317383	-0.00461426	1.76802	
9.90264	-0.6875	40.8121	4.99207	0.0238037	0.00396729	0.0448608	9.51379	-0.0508797	40.5299	0.709273	11.2902	-1.77645	0.00324707	-0.00366211	1.77645	
9.12085	-0.34375	40.5463	4.99237	0.0262451	0.000305176	0.0119019	9.50616	-0.0518518	40.5277	0.709234	11.2906	-1.78446	0.00311279	-0.00258789	1.78446	
0.521191	-0.53125	40.6632	4.99176	0.0265503	0.00274658	-0.015564	9.49734	-0.0530536	40.5256	0.709198	11.291	-1.79362	0.00301514	-0.00169678	1.79362	
9.51174	-0.96875	40.5356	4.99359	0.0247192	0.00366211	-0.0183105	9.48599	-0.0545489	40.5236	0.709164	11.2913	-1.80531	0.00305176	-0.00273437	1.80531	
9.20771	2.71875	40.8227	4.9881	0.0198364	0.0012207	-0.0878906	9.47361	-0.0559194	40.5218	0.709132	11.2916	-1.81799	0.0029541	-0.00561523	1.81799	
10.0329	-0.15625	40.6632	4.98901	0.0231934	0.00396729	0.0192261	9.46167	-0.0565382	40.5202	0.709104	11.2919	-1.83021	0.00302734	-0.00549316	1.83021	
10.4673	0.53125	41.1097	4.98749	0.0234985	0.00396729	0.00854492	9.45044	-0.0566446	40.5188	0.70908	11.2921	-1.84167	0.003125	-0.00494385	1.84167	
9.81577	0.15625	41.2479	4.98871	0.0265503	0.00457764	0.0500488	9.44007	-0.0565472	40.5178	0.709062	11.2923	-1.85222	0.00319824	-0.00351563	1.85222	
8.03503	-1.28125	40.2805	4.98932	0.0247192	0.00396729	-0.0302124	9.43011	-0.0564861	40.5171	0.70905	11.2924	-1.86229	0.00323486	-0.0048584	1.86229	
9.51174	-1.84375	40.3655	4.9939	0.0256348	0.00335693	-0.00579834	9.42015	-0.0570514	40.5165	0.709038	11.2925	-1.87236	0.00308838	-0.00454102	1.87236	
13.4641	-0.84375	40.5144	4.99664	0.0265503	0.00396729	-0.00396729	9.41097	-0.0584634	40.5157	0.709025	11.2926	-1.88166	0.003479	-0.00498047	1.88166	
9.20771	-0.34375	40.4931	4.98688	0.0256348	0.00213623	-0.0265503	9.40335	-0.060391	40.515	0.709013	11.2928	-1.8894	0.00341797	-0.00629883	1.8894	
9.25115	4.15625	40.3868	4.98932	0.0250244	0.00366211	-0.00183105	9.39655	-0.0618065	40.5143	0.709	11.2929	-1.89633	0.00338135	-0.00648193	1.89633	
7.94817	-1.03125	40.7057	4.98749	0.0256348	0.00366211	0.0161743	9.38969	-0.0620578	40.5136	0.708988	11.293	-1.90331	0.00344238	-0.00350342	1.90331	
9.29458	-0.625	40.4718	4.99054	0.0262451	0.00366211	0.0100708	9.38258	-0.062034	40.5129	0.708976	11.2931	-1.91053	0.00316162	-0.00285645	1.91053	
8.77339	-1.34375	39.4619	4.99298	0.0259399	0.00396729	0.0314331	9.37537	-0.062535	40.5122	0.708963	11.2932	-1.91787	0.00314941	-0.00163574	1.91787	
8.03503	-1.40625	40.3443	4.98688	0.0247192	0.00244141	0.032959	9.36801	-0.0637118	40.511	0.708943	11.2934	-1.92541	0.00314941	0.000598145	1.92541	
9.33801	-1.34375	40.3336	4.98901	0.0265503	-0.00274658	-0.00823975	9.3604	-0.0656612	40.5097	0.70892	11.2937	-1.93325	0.0027832	0.000341797	1.93325	
0.99895	-0.09375	40.9184	4.98444	0.0247192	0.00366211	0.00274658	9.35154	-0.0681515	40.5085	0.708898	11.2939	-1.94232	0.00286865	-0.000976563	1.94232	
10.5976	-0.53125	40.8121	4.98077	0.0231934	0.00457764	0.0308228	9.34059	-0.0708325	40.5074	0.708879	11.2941	-1.95346	0.0029541	-6.10352E-005	1.95346	
10.0329	2.1875	40.8121	4.97864	0.0231934	0.00213623	-0.0222778	9.32923	-0.0732159	40.5065	0.708864	11.2942	-1.96496	0.00291748	-0.000183105	1.96496	
9.55518	-0.28125	40.6632	4.98108	0.0259399	0.00457764	0.0271606	9.31872	-0.074918	40.5059	0.708853	11.2943	-1.97559	0.00305176	0.00184326	1.97559	
9.64204	-0.53125	40.8333	4.98505	0.0259399	0.00427246	0.0509644	9.3088	-0.0763444	40.5054	0.708844	11.2944	-1.98559	0.00311279	0.00611572	1.98559	
9.90264	-0.21875	40.0041	4.98383	0.0228882	0.00274658	0.0280762	9.29947	-0.077916	40.505	0.708837	11.2945	-1.99499	0.00306396	0.00817871	1.99499	
9.33801	-0.65625	40.4293	4.98199	0.0247192	0.00366211	0.00610352	9.2907	-0.0796365	40.5045	0.708828	11.2945	-2.00384	0.003125	0.00601807	2.00384	
11.3793	0.03125	40.525	4.98199	0.0234985	0.00335693	-0.0289917	9.28268	-0.0814802	40.5039	0.708818	11.2946	-2.01196	0.00310059	0.00306396	2.01196	
10.5976	-0.34375	40.7057	4.9823	0.0241089	0.00396729	0.0161743	9.2758	-0.0833544	40.5033	0.708808	11.2947	-2.01894	0.00324707	0.00323486	2.01894	
11.0319	-0.78125	40.5356	4.97589	0.0250244	0.00457764	0.0228882	9.27017	-0.0853345	40.5029	0.7088	11.2948	-2.02464	0.00332031	0.00477295	2.02464	
7.94817	3.03125	40.4506	4.98077	0.0253296	0.00213623	-0.00762939	9.26529	-0.0870179	40.5024	0.708793	11.2949	-2.0296	0.00325928	0.0052002	2.0296	
8.16533	-1.375	40.1104	4.9823	0.0265503	0.000610352	-0.0289917	9.26027	-0.0879825	40.502	0.708785	11.295	-2.0347	0.00323486	0.00755615	2.0347	
9.42488	-0.875	40.4931	4.98199	0.0247192	0.00274658	-0.00823975	9.2549	-0.0889509	40.5014	0.708774	11.2951	-2.04016	0.00318604	0.00645752	2.04016	
8.81682	-0.59375	39.1429	4.98383	0.0234985	0.00396729	0.027771	9.24954	-0.0904072	40.5006	0.70876	11.2952	-2.04566	0.00318604	0.00722656	2.04566	
9.59861	-0.84375	40.6207	4.97864	0.0256348	0.00244141	-0.0286865	9.24432	-0.0922075	40.4994	0.708739	11.2954	-2.05109	0.00310059	0.00407715	2.05109	
10.1632	-0.28125	40.4612	4.97711	0.0241089	-0.00274658	0.0338745	9.23946	-0.0942852	40.498	0.708715	11.2956	-2.05618	0.00283203	0.00664062	2.05618	
4.77759	-1.09375	40.5994	4.98718	0.0228882	0.00396729	-0.0540161	9.23442	-0.0966197	40.4967	0.708693	11.2959	-2.06143	0.00285645	0.00471191	2.06143	
8.42593	-0.96875	40.4293	4.9762	0.0283813	0.00366211	0.00579834	9.2282	-0.0993461	40.4955	0.708672	11.2961	-2.06786	0.00284424	0.00510254	2.06786	
8.64309	2.59375	40.3336	4.97864	0.0256348	0.00457764	0.0170898	9.22116	-0.101983	40.4943	0.70865	11.2963	-2.0751	0.00294189	0.00684814	2.0751	
9.03398	-1.375	40.0679	4.98169	0.0253296	0.00335693	-0.00640869	9.21404	-0.104024	40.493	0.708628	11.2965	-2.08245	0.00292969	0.00666504	2.08245	
10.2501	-0.09375	41.0459	4.97009	0.0231934	0.00366211	-0.0509644	9.20718	-0.105968	40.4917	0.708605	11.2967	-2.08953	0.00292969	0.00397949	2.08953	
10.5976	0.25	40.4293	4.97101	0.0228882	0.00366211	0.0271606	9.20107	-0.107982	40.4905	0.708585	11.2969	-2.09583	0.00292969	0.00466309	2.09583	
10.337	0.0625	40.5994	4.97589	0.0253296	0.00518799	0.0134277	9.19595	-0.109785	40.4895	0.708566	11.2971	-2.10113	0.00297852	0.00394287	2.10113	
10.5107	-0.21875	40.5356	4.97284	0.0259399	0.00579834	-0.0460815	9.19178	-0.111434	40.4885	0.708549	11.2972	-2.10547	0.00311279	0.00078125	2.10547	
9.55518	0.15625	40.5356	4.9707	0.0241089	0.00213623	0.0119019	9.1884	-0.112989	40.4876	0.708533	11.2974	-2.109	0.00330811	0.00158691	2.109	
10.1632	-0.71875	40.5144	4.97711	0.0259399	0.00396729	0.00152588	9.18561	-0.114517	40.4868	0.708519	11.2975	-2.11193	0.00332031	0.00153809	2.11193	
9.25115	3.8125	40.4825	4.9765	0.0231934	0.00274658	0.0299072	9.18329	-0.115528	40.486	0.708505	11.2977	-2.11439	0.00324707	0.00150146	2.11439	
9.94607	0.0625	40.5994	4.9704	0.0222778	0.00213623	-0.0424194	9.18134	-0.115351	40.4852	0.708491	11.2978	-2.11646	0.00324707	0.000695801	2.11646	
10.4238	0.46875	40.9184	4.96979	0.0238037	0.00396729	0.050354	9.1799	-0.114424	40.4846	0.70848	11.2979	-2.11801	0.00322266	0.00162354	2.11801	
10.641	0.375	39.1323	4.96735	0.0265503	0.00396729	0.0296021	9.17924	-0.113246	40.4839	0.708469	11.298	-2.11878	0.00321045	0.000769043	2.11878	
8.94712	-1.0625	40.4506	4.97284	0.0234985	0.00152588	0.0314331	9.17922	-0.112014	40.4829	0.708452	11.2982	-2.11897	0.00316162	0.00090332	2.11897	
9.46831	-1.59375	40.3017	4.97528	0.0247192	-0.00518799	-0.0222778	9.17939	-0.111275	40.4817	0.70843	11.2984	-2.119	0.00280762	-0.000231934	2.119	
2.69282	-0.59375	40.3443	4.98016	0.0280762	0.00274658	0.00335693	9.17861	-0.111244	40.4805	0.708409	11.2986	-2.12	0.0027832	0.00106201	2.12	
9.12085	-0.65625	40.5463	4.97284	0.0234985	0.00183105	-0.0408936	9.17588	-0.111678	40.4792	0.708387	11.2988	-2.12294	0.00269775	-0.0012207	2.12294	
9.55518	1.03125	40.4187	4.97528	0.0231934	0.00427246	-0.0543213	9.17227	-0.112164	40.478	0.708365	11.299	-2.12675	0.00268555	-0.00430908	2.12675	
9.38145	-0.40625	40.5144	4.97528	0.0231934	0.00366211	0.00976563	9.16894	-0.112407	40.4768	0.708344	11.2992	-2.13029	0.00274658	-0.00361328	2.13029	
8.99055	-0.78125	40.7802	4.97711	0.0256348	0.00274658	0.0354004	9.16583	-0.11266	40.4757	0.708325	11.2994	-2.13359	0.00283203	-0.0010376	2.13359	
9.03398	-1.25	39.834	4.97589	0.0259399	0.00396729	-0.00366211	9.16278	-0.113334	40.4747	0.708307	11.2996	-2.13682	0.00288086	-0.000854492	2.13682	
8.46936	-1.65625	40.2061	4.97833	0.0259399	0.00366211	-0.0131226	9.15966	-0.114679	40.4735	0.708285	11.2998	-2.14014	0.00286865	-0.00249023	2.14014	
10.2501	-0.90625	40.0147	4.97681	0.0247192	0.00396729	-0.00335693	9.15658	-0.116755	40.472	0.708261	11.3	-2.14346	0.00292969	-0.00147705	2.14346	
6.124	0.21875	40.5463	4.97101	0.0244141	0.00396729	0.000610352	9.15338	-0.11919	40.4705	0.708233	11.3003	-2.14692	0.00319824	-0.00280762	2.14692	
10.0329	1.21875	40.7695	4.96948	0.0213623	0.00213623	-0.00579834	9.14965	-0.12135	40.469	0.708207	11.3006	-2.1509	0.003125	-0.000878906	2.1509	
9.90264	4.9375	40.4931	4.97009	0.022583	0.00335693	-0.00732422	9.14598	-0.122181	40.4677	0.708184	11.3008	-2.1548	0.00311279	-0.00140381	2.1548	
9.64204	0	40.4931	4.97223	0.0274658	0.00457764	0.0146484	9.14288	-0.121186	40.4664	0.708163	11.301	-2.1581	0.00311279	-0.00150146	2.1581	
10.2935	-0.0625	40.6207	4.97437	0.0238037	0.00274658	-0.0253296	9.14035	-0.119394	40.4653	0.708143	11.3012	-2.16083	0.00308838	-0.0022583	2.16083	
9.16428	0.21875	38.6007	4.97528	0.0228882	0.00274658	0.0088501	9.13834	-0.117576	40.4639	0.708119	11.3014	-2.16307	0.00305176	0.000134277	2.16307	
9.07742	-0.6875	40.4931	4.97772	0.0241089	0.00396729	0.0314331	9.13658	-0.115797	40.4621	0.708087	11.3017	-2.16514	0.00306396	0.000305176	2.16514	
11.0319	-0.59375	40.3124	4.97437	0.0256348	-0.00427246	-0.0131226	9.13516	-0.11428	40.46	0.70805	11.3021	-2.16692	0.00268555	-0.000756836	2.16692	
2.04133	0.9375	40.7376	4.97101	0.0241089	0.00305176	-0.0344849	9.13327	-0.11289	40.458	0.708015	11.3024	-2.16915	0.00257568	-0.000292969	2.16915	
10.4673	-0.53125	40.642	4.9707	0.0265503	0.00488281	-0.000915527	9.12974	-0.111363	40.4562	0.707983	11.3027	-2.17298	0.00268555	-0.000805664	2.17298	
7.81787	-2.0625	40.3443	4.97559	0.0231934	0.00396729	-0.00946045	9.12546	-0.110159	40.4545	0.707953	11.303	-2.17756	0.00268555	-0.00124512	2.17756	
7.73101	-1.84375	40.3017	4.98047	0.0259399	0.00396729	-0.00610352	9.1209	-0.109937	40.4528	0.707924	11.3033	-2.18239	0.00273437	-0.00268555	2.18239	
8.94712	-0.46875	40.5888	4.97986	0.0256348	0.00457764	-0.0137329	9.11585	-0.11062	40.4511	0.707895	11.3036	-2.18773	0.00283203	-0.00153809	2.18773	
8.42593	-1.53125	39.4087	4.98077	0.0250244	0.00366211	0.0143433	9.1106	-0.111879	40.4494	0.707865	11.3039	-2.19327	0.00281982	-0.00297852	2.19327	
9.03398	-0.125	40.3017	4.97711	0.0241089	0.00549316	0.0256348	9.10528	-0.113592	40.4474	0.70783	11.3042	-2.19893	0.00288086	-0.00313721	2.19893	
10.4238	-1	40.3443	4.97925	0.0250244	0.00396729	0.0265503	9.10022	-0.115606	40.4453	0.707792	11.3046	-2.20435	0.00297852	-0.00333252	2.20435	
3.47461	-0.78125	40.3336	4.97253	0.0238037	0.00152588	0.0088501	9.09487	-0.117929	40.4431	0.707754	11.3049	-2.21007	0.00324707	-0.0020874	2.21007	
9.03398	-0.625	40.4293	4.97772	0.0253296	0.00427246	0.0119019	9.08816	-0.120592	40.441	0.707717	11.3053	-2.21714	0.00330811	-0.00174561	2.21714	
7.81787	4.09375	40.2592	4.98352	0.0274658	0.00549316	0.0460815	9.0806	-0.122768	40.4389	0.70768	11.3057	-2.22505	0.00345459	0.0017334	2.22505	
8.42593	-1.125	40.0891	4.98444	0.0265503	0.00335693	0.0369263	9.0728	-0.123792	40.4367	0.707643	11.306	-2.23322	0.00341797	0.0053833	2.23322	
9.9895	0.21875	40.8546	4.97955	0.0234985	0.00488281	0.0146484	9.06502	-0.124384	40.4346	0.707606	11.3064	-2.24136	0.0034668	0.00557861	2.24136	
10.4238	0.53125	39.0366	4.97559	0.022583	0.00366211	0.00274658	9.05791	-0.124902	40.4324	0.707567	11.3067	-2.24884	0.00350342	0.00427246	2.24884	
9.77234	-1.28125	40.5994	4.97833	0.0247192	0.00305176	-0.0183105	9.05173	-0.125325	40.43	0.707524	11.3072	-2.25544	0.0034668	0.00368652	2.25544	
9.94607	0.03125	40.5994	4.97955	0.0234985	-0.000915527	-0.00274658	9.04634	-0.125965	40.4274	0.70748	11.3076	-2.26125	0.00328369	0.00410156	2.26125	
0.608057	-0.34375	40.5782	4.98444	0.0250244	0.00518799	-0.0482178	9.04022	-0.126748	40.4251	0.70744	11.308	-2.26777	0.00333252	0.00230713	2.26777	
9.46831	-0.78125	40.5144	4.98444	0.0274658	0.00427246	0.0177002	9.0319	-0.127647	40.423	0.707402	11.3083	-2.27645	0.00334473	0.00299072	2.27645	
8.42593	-2.9375	40.6313	4.98077	0.0241089	0.00335693	-0.0323486	9.02261	-0.129187	40.421	0.707367	11.3087	-2.28607	0.00339355	0.00192871	2.28607	
9.64204	-0.125	40.5569	4.9826	0.0222778	0.00457764	0.0167847	9.01362	-0.131645	40.4191	0.707335	11.309	-2.29537	0.00344238	0.00289307	2.29537	
10.4238	0.15625	41.1097	4.98077	0.0247192	0.00396729	-0.0228882	9.00527	-0.134406	40.4176	0.707307	11.3093	-2.30398	0.00341797	0.0013916	2.30398	
10.0764	-0.21875	39.8552	4.97925	0.0265503	0.00427246	-0.000915527	8.99792	-0.136993	40.4162	0.707283	11.3095	-2.31157	0.003479	0.00236816	2.31157	
8.51279	-0.78125	40.4931	4.98871	0.0256348	0.00274658	0.00396729	8.99131	-0.139568	40.4148	0.707259	11.3097	-2.31842	0.003479	0.00217285	2.31842	
7.51384	-1.625	40.2167	4.99603	0.0247192	0.00701904	-0.0378418	8.98471	-0.142496	40.4134	0.707234	11.31	-2.32525	0.00360107	-0.000598145	2.32525	
4.99475	-0.875	40.4612	4.98901	0.0244141	0.00518799	0.0128174	8.9772	-0.145994	40.412	0.70721	11.3102	-2.33301	0.00397949	0.000439453	2.33301	
9.20771	-0.84375	40.4293	4.98993	0.0253296	0.00274658	-0.0216675	8.96852	-0.149933	40.4106	0.707185	11.3104	-2.34192	0.00396729	0.000952148	2.34192	
8.33906	0.875	40.5994	4.98596	0.0234985	0.00305176	0.0418091	8.95951	-0.153904	40.4093	0.707163	11.3107	-2.35115	0.00389404	0.00266113	2.35115	
8.2522	-0.34375	40.5356	4.98749	0.0231934	0.00457764	0.0256348	8.95055	-0.157554	40.4081	0.707143	11.3109	-2.36031	0.00391846	0.00406494	2.36031	
8.59966	-0.71875	40.5144	4.98566	0.027771	0.00366211	0.00518799	8.94153	-0.161061	40.4071	0.707124	11.311	-2.3695	0.00390625	0.0045166	2.3695	
8.99055	-0.71875	39.1961	4.9881	0.0265503	0.00335693	0.00305176	8.93262	-0.164733	40.406	0.707105	11.3112	-2.37859	0.00385742	0.00518799	2.37859	
8.1219	-1.59375	40.2805	4.9942	0.0238037	0.00305176	-0.0100708	8.92387	-0.168756	40.4045	0.707079	11.3115	-2.3876	0.00383301	0.00421143	2.3876	
9.03398	-1.53125	40.2805	4.99146	0.0259399	-0.00152588	-0.00213623	8.9152	-0.173378	40.4028	0.70705	11.3117	-2.39655	0.00355225	0.00310059	2.39655	
1.12925	-0.375	40.7483	4.98566	0.0247192	0.00457764	0.0540161	8.90554	-0.178511	40.4012	0.707022	11.312	-2.40649	0.00357666	0.00419922	2.40649	
10.7713	0.375	40.6526	4.98596	0.0241089	0.00396729	0.0283813	8.89411	-0.183651	40.3998	0.706997	11.3123	-2.41815	0.00367432	0.00498047	2.41815	
9.59861	0.84375	40.4931	4.98871	0.0259399	0.00457764	-0.0326538	8.88257	-0.188307	40.3986	0.706975	11.3125	-2.4299	0.00368652	0.00319824	2.4299	
8.86025	-0.21875	40.6951	4.99146	0.0265503	0.00213623	-0.0308228	8.87194	-0.192398	40.3975	0.706956	11.3127	-2.44071	0.00355225	0.00012207	2.44071	
9.29458	-0.375	40.7695	4.99298	0.0253296	0.00274658	-0.00915527	8.86186	-0.196222	40.3966	0.706941	11.3128	-2.45094	0.00352783	-0.00172119	2.45094	
8.94712	-0.59375	39.6851	4.9942	0.0231934	0.00335693	-0.0378418	8.85228	-0.200033	40.3958	0.706927	11.3129	-2.46066	0.0034668	-0.0038208	2.46066	
9.25115	-0.65625	40.5994	4.99054	0.0241089	0.00518799	-0.0238037	8.84319	-0.203931	40.395	0.706912	11.3131	-2.46989	0.00352783	-0.00488281	2.46989	
9.25115	-0.53125	40.7483	4.99207	0.0253296	0.00823975	0.00213623	8.83463	-0.207944	40.3941	0.706897	11.3132	-2.4786	0.00373535	-0.00406494	2.4786	
5.77654	-0.21875	41.131	4.98901	0.0247192	0.0012207	0.0137329	8.82608	-0.211989	40.3935	0.706887	11.3133	-2.48724	0.0038208	-0.00340576	2.48724	
10.337	0.40625	40.8971	4.98566	0.0228882	0.00457764	0.0137329	8.81719	-0.215849	40.3934	0.706884	11.3134	-2.49617	0.00379639	-0.000927734	2.49617	
8.42593	3.09375	40.5463	4.99634	0.0265503	0.00457764	0.0622559	8.80855	-0.218867	40.3935	0.706886	11.3133	-2.50479	0.00380859	0.000854492	2.50479	
8.07847	-1.5625	40.3655	4.99664	0.0259399	0.00366211	0.0283813	8.80021	-0.220864	40.3937	0.70689	11.3133	-2.51309	0.0038208	0.00328369	2.51309	
8.07847	-1.09375	40.7376	4.99573	0.0259399	0.00274658	-0.0253296	8.79177	-0.222828	40.394	0.706895	11.3132	-2.52148	0.00374756	0.00159912	2.52148	
9.16428	-1.71875	40.3124	4.9942	0.0231934	0.00274658	-0.00183105	8.78335	-0.225434	40.3944	0.706901	11.3132	-2.52983	0.00369873	0.00244141	2.52983	
8.72996	-0.78125	40.4081	4.99054	0.0259399	0.00152588	0.0363159	8.77523	-0.228633	40.3948	0.706908	11.3131	-2.53789	0.00358887	0.00393066	2.53789	
10.5541	-1.125	40.6951	4.99481	0.0247192	0.00183105	0.00183105	8.76771	-0.232263	40.3952	0.706916	11.313	-2.54534	0.00355225	0.00384521	2.54534	
1.56357	-0.90625	40.6207	4.99054	0.0234985	0.00335693	-0.0402832	8.75989	-0.236232	40.3957	0.706925	11.313	-2.55307	0.00340576	0.00374756	2.55307	
8.59966	-1.65625	40.4718	4.99664	0.0265503	0.00366211	0.00549316	8.75035	-0.240629	40.3963	0.706936	11.3128	-2.56249	0.00334473	0.00345459	2.56249	
7.38354	-6.53125	40.3868	4.99634	0.0247192	0.00274658	-0.0247192	8.73978	-0.24639	40.397	0.706948	11.3127	-2.57295	0.00334473	0.00333252	2.57295	
8.20876	-1.34375	40.3443	4.99664	0.0247192	0.00457764	0.00213623	8.72906	-0.25429	40.3977	0.706959	11.3126	-2.58357	0.00340576	0.00174561	2.58357	
9.42488	-0.25	40.9184	4.98657	0.0222778	0.00274658	-0.0265503	8.71844	-0.263225	40.3984	0.706971	11.3125	-2.59407	0.00333252	-0.000341797	2.59407	
10.6844	-0.28125	39.7489	4.98627	0.0253296	0.00549316	0.0289917	8.70864	-0.272014	40.3991	0.706984	11.3124	-2.60375	0.00340576	0.000610352	2.60375	
9.20771	0.09375	40.9184	4.98749	0.0244141	0.00244141	0.00427246	8.69999	-0.280439	40.3997	0.706995	11.3123	-2.61229	0.00336914	0.00065918	2.61229	
8.86025	-0.21875	40.7483	4.99115	0.0247192	0.00823975	0.0375366	8.69212	-0.288445	40.4005	0.707008	11.3121	-2.62003	0.00357666	0.00256348	2.62003	
4.34326	-0.4375	40.4825	4.98749	0.0247192	0.00305176	0.0601196	8.68399	-0.296113	40.4014	0.707024	11.312	-2.628	0.00375977	0.00505371	2.628	
9.9895	-0.28125	40.7695	4.99451	0.0241089	0.00457764	-0.0320435	8.67503	-0.303542	40.4024	0.707042	11.3118	-2.63679	0.00375977	0.00161133	2.63679	
9.64204	2.96875	40.6632	4.99237	0.0256348	0.00457764	-0.0134277	8.66626	-0.310219	40.4036	0.707063	11.3116	-2.64536	0.00378418	-6.10352E-005	2.64536	
9.20771	-0.71875	40.8546	4.98474	0.0222778	0.00183105	-0.0268555	8.6584	-0.315703	40.4049	0.707086	11.3114	-2.65301	0.00367432	0.000170898	2.65301	
11.2056	0.375	41.1842	4.98627	0.0238037	0.00457764	-0.00671387	8.65152	-0.320505	40.4065	0.707113	11.3111	-2.65961	0.00377197	0.00113525	2.65961	
9.90264	0	39.2173	4.98688	0.0265503	0.00396729	0.0387573	8.64596	-0.324935	40.4081	0.707142	11.3109	-2.6649	0.0038208	0.00305176	2.6649	
7.73101	-1.21875	40.5675	4.98993	0.0265503	-0.000305176	-0.0268555	8.64124	-0.329139	40.4095	0.707166	11.3106	-2.66939	0.00367432	0.00349121	2.66939	
8.81682	-1.1875	40.3868	4.9939	0.0228882	0.00396729	0.000305176	8.63662	-0.333555	40.4107	0.707187	11.3104	-2.6738	0.00362549	0.00445557	2.6738	
1.12925	-1.46875	40.4506	4.99298	0.0256348	0.00335693	-0.0167847	8.63092	-0.338395	40.4118	0.707207	11.3102	-2.67931	0.00343018	0.00369873	2.67931	
8.77339	-0.28125	40.4081	4.99023	0.0253296	0.00274658	0.0112915	8.62314	-0.34354	40.4129	0.707227	11.31	-2.6869	0.00349121	0.00360107	2.6869	
8.99055	-6.40625	40.7057	4.98474	0.0247192	0.0012207	0.0143433	8.61457	-0.3496	40.4141	0.707246	11.3098	-2.69528	0.00335693	0.00362549	2.69528	
8.86025	-0.53125	40.5782	4.98596	0.0247192	0.00366211	-0.0180054	8.60648	-0.357346	40.4153	0.707268	11.3096	-2.70316	0.00332031	0.000415039	2.70316	
9.33801	-1.03125	40.5569	4.98901	0.0256348	0.00457764	0.0143433	8.59892	-0.365919	40.4166	0.70729	11.3094	-2.7105	0.00335693	-0.000146484	2.7105	
8.64309	-0.71875	39.6213	4.98749	0.0271606	0.00366211	0.0250244	8.59191	-0.374479	40.4178	0.707311	11.3092	-2.71732	0.00339355	0.00186768	2.71732	
8.77339	-0.84375	40.1742	4.9881	0.0253296	0.00396729	0.0283813	8.5853	-0.383022	40.4187	0.707326	11.3091	-2.72378	0.00344238	0.00307617	2.72378	
9.07742	-1.71875	40.323	4.99176	0.0247192	0.00457764	0.0100708	8.57906	-0.391668	40.4193	0.707338	11.309	-2.72991	0.00356445	0.00202637	2.72991	
6.90579	-0.71875	40.8227	4.97559	0.0241089	0.00213623	-0.00610352	8.57297	-0.400545	40.4199	0.707348	11.3089	-2.7359	0.00357666	0.00170898	2.7359	
9.81577	1	40.727	4.97589	0.0234985	0.00427246	0.00152588	8.56684	-0.409198	40.4206	0.707361	11.3087	-2.7419	0.00361328	0.00338135	2.7419	
10.7279	1.90625	40.8121	4.98413	0.0234985	0.00396729	-0.0289917	8.56139	-0.416801	40.4216	0.707378	11.3086	-2.74718	0.00362549	0.00200195	2.74718	
9.8592	-0.28125	40.727	4.98199	0.0241089	-0.000915527	-0.0167847	8.55721	-0.423176	40.4227	0.707397	11.3084	-2.75118	0.003479	0.00231934	2.75118	
9.64204	-0.34375	40.9184	4.98444	0.0247192	0.00335693	-0.000915527	8.55407	-0.428911	40.424	0.70742	11.3082	-2.75409	0.00343018	0.00219727	2.75409	
10.4238	-0.375	39.3874	4.98352	0.0259399	0.00457764	-0.0012207	8.55188	-0.434388	40.4253	0.707443	11.3079	-2.75607	0.00350342	0.00321045	2.75607	
9.8592	-1.09375	40.5782	4.98077	0.0247192	0.00213623	0.00152588	8.55071	-0.439743	40.4264	0.707462	11.3078	-2.75706	0.00336914	0.00211182	2.75706	
9.94607	-0.15625	40.6632	4.98169	0.020752	0.00701904	-0.00335693	8.5505	-0.445061	40.4273	0.707478	11.3076	-2.75711	0.00355225	0.00180664	2.75711	
4.69072	0	40.9503	4.97772	0.0259399	0.00366211	-0.0228882	8.55034	-0.450134	40.4284	0.707497	11.3074	-2.75709	0.00336914	-0.000610352	2.75709	
10.4238	-0.15625	40.8333	4.97589	0.0234985	0.00335693	-0.0109863	8.54949	-0.4548	40.4297	0.707519	11.3072	-2.75773	0.00338135	-0.00345459	2.75773	
8.77339	-6.65625	40.5782	4.98047	0.0244141	0.00274658	0.0540161	8.54868	-0.460101	40.4311	0.707545	11.307	-2.75828	0.00330811	-1.2207E-005	2.75828	
8.07847	-1.28125	40.2805	4.9826	0.0271606	0.00366211	-0.00427246	8.54819	-0.467221	40.4327	0.707572	11.3067	-2.75851	0.00327148	0.000354004	2.75851	
8.94712	-1.625	40.2911	4.98047	0.0253296	0.00152588	-0.0186157	8.54768	-0.475484	40.4341	0.707596	11.3065	-2.75879	0.00325928	0.000683594	2.75879	
8.90369	-0.625	39.3874	4.98169	0.0247192	0.00457764	0.00152588	8.54728	-0.483963	40.4352	0.707616	11.3063	-2.75899	0.00325928	0.00101318	2.75899	
9.25115	-1.21875	40.4612	4.97589	0.0231934	0.00152588	-0.0210571	8.54718	-0.492481	40.436	0.707629	11.3061	-2.75897	0.00316162	-0.00137939	2.75897	
9.03398	-0.53125	40.5782	4.97772	0.0250244	0.0088501	-0.027771	8.54743	-0.500954	40.4366	0.70764	11.306	-2.75861	0.00352783	-0.00141602	2.75861	
3.82207	-0.6875	40.5569	4.97833	0.0262451	0.00366211	0.00640869	8.54721	-0.50928	40.4372	0.707651	11.3059	-2.75873	0.00351563	-0.00117188	2.75873	
8.86025	-0.65625	40.3017	4.98322	0.0256348	0.00274658	-0.0326538	8.54564	-0.517397	40.4378	0.707662	11.3058	-2.76018	0.00349121	-0.00180664	2.76018	
8.33906	-1.15625	40.0679	4.98322	0.0259399	0.00366211	0.0454712	8.54347	-0.525399	40.4384	0.707672	11.3057	-2.76227	0.00352783	-0.000439453	2.76227	
8.68652	-1.375	40.2805	4.97925	0.0259399	0.00396729	0.0283813	8.54138	-0.53347	40.4388	0.707678	11.3057	-2.7643	0.0036377	0.00012207	2.7643	
9.38145	-0.71875	40.6845	4.97192	0.022583	0.00213623	-0.0119019	8.5395	-0.541645	40.439	0.707683	11.3056	-2.76612	0.00357666	0.000366211	2.76612	
10.7279	-0.0625	40.2805	4.96704	0.0228882	0.00305176	-0.0158691	8.53832	-0.549644	40.4394	0.707689	11.3056	-2.76726	0.00351563	-0.000842285	2.76726	
10.7279	0.53125	40.4825	4.97406	0.027771	0.0012207	-0.0131226	8.53832	-0.557072	40.4396	0.707694	11.3055	-2.7672	0.00341797	-0.00236816	2.7672	
9.38145	-0.21875	40.6207	4.97345	0.0259399	0.00244141	0.0296021	8.53948	-0.563773	40.4399	0.707699	11.3055	-2.76599	0.00335693	-0.00231934	2.76599	
11.0753	-0.75	40.642	4.97467	0.0247192	0.000305176	-0.00762939	8.54159	-0.569992	40.4403	0.707706	11.3054	-2.76382	0.00318604	-0.00302734	2.76382	
9.20771	0.25	40.5782	4.97375	0.0244141	0.00457764	0.0363159	8.54464	-0.575869	40.4408	0.707714	11.3053	-2.76068	0.00328369	-0.00133057	2.76068	
9.59861	-4.71875	40.642	4.97955	0.0244141	0.00427246	0.00640869	8.54836	-0.581953	40.4414	0.707724	11.3052	-2.75688	0.00328369	-0.00113525	2.75688	
10.3804	0.4375	40.7483	4.97284	0.0234985	0.00274658	-0.0466919	8.55265	-0.588821	40.442	0.707736	11.3051	-2.75247	0.00323486	-0.00184326	2.75247	
10.9885	0.21875	40.6207	4.96857	0.0244141	0.00488281	0.0387573	8.5579	-0.595647	40.4428	0.70775	11.305	-2.74708	0.0034668	0.000378418	2.74708	
10.337	0.96875	39.6426	4.96857	0.0253296	0.00427246	0.0143433	8.56428	-0.601578	40.4436	0.707763	11.3049	-2.74057	0.00350342	0.00098877	2.74057	
9.20771	-1.125	40.3124	4.97681	0.0274658	0.00152588	-0.000915527	8.57146	-0.606769	40.4441	0.707772	11.3048	-2.7333	0.00338135	0.00100098	2.7333	
7.20981	-1.375	40.4506	4.97467	0.0250244	0.00610352	-0.0622559	8.57866	-0.611814	40.4444	0.707777	11.3047	-2.72606	0.00354004	-0.00155029	2.72606	
4.73416	-0.59375	40.4506	4.97223	0.0234985	0.00366211	0.0256348	8.58468	-0.616997	40.4447	0.707782	11.3047	-2.71999	0.00340576	-0.000390625	2.71999	
9.03398	-0.53125	41.0247	4.97589	0.0238037	0.00335693	-0.000915527	8.58915	-0.622095	40.445	0.707788	11.3046	-2.71546	0.00339355	0.000488281	2.71546	
9.9895	-1.71875	40.4506	4.97589	0.0256348	0.00457764	-0.00457764	8.59322	-0.627153	40.4456	0.707798	11.3045	-2.7113	0.00344238	0.000744629	2.7113	
9.8592	0.0625	40.4718	4.97406	0.0216675	0.00213623	0.00274658	8.59784	-0.632252	40.4462	0.707808	11.3044	-2.70657	0.00341797	-0.00130615	2.70657	
9.20771	-0.5	40.4931	4.97864	0.0241089	0.00152588	-0.0247192	8.60301	-0.637105	40.4468	0.707819	11.3043	-2.7013	0.00333252	-0.00212402	2.7013	
8.59966	-0.53125	40.5782	4.97589	0.0265503	0.00366211	-0.0296021	8.60838	-0.64162	40.4474	0.70783	11.3042	-2.69583	0.00341797	-0.00256348	2.69583	
8.2522	-1.875	40.1954	4.97833	0.0271606	0.00213623	-0.0204468	8.61359	-0.646114	40.448	0.70784	11.3041	-2.69051	0.00332031	-0.00344238	2.69051	
8.42593	-1.46875	40.3017	4.97467	0.0256348	0.00946045	-0.00823975	8.61848	-0.650941	40.4485	0.707849	11.304	-2.68553	0.0036377	-0.00292969	2.68553	
9.9895	0.15625	40.8121	4.96704	0.0231934	0.00396729	-0.0164795	8.6233	-0.655918	40.449	0.707857	11.3039	-2.68064	0.00344238	-0.00247803	2.68064	
10.5976	1.15625	40.4931	4.97101	0.0262451	0.00366211	0.0442505	8.62865	-0.660315	40.4495	0.707867	11.3038	-2.6752	0.00344238	-0.000964355	2.6752	
9.68547	-2.59375	40.6313	4.97192	0.0244141	0.0012207	-0.020752	8.63479	-0.664167	40.4502	0.707878	11.3037	-2.66895	0.00338135	-0.000488281	2.66895	
9.72891	-0.4375	40.5994	4.97131	0.0231934	0.00366211	-0.0192261	8.64153	-0.668166	40.4508	0.70789	11.3036	-2.6621	0.00338135	-0.00307617	2.6621	
9.68547	-0.625	40.3655	4.97589	0.027771	0.00396729	-0.0375366	8.64868	-0.672246	40.4516	0.707902	11.3035	-2.65482	0.00338135	-0.00571289	2.65482	
9.12085	-0.78125	40.4187	4.9765	0.0234985	0.00335693	0.00274658	8.65616	-0.676149	40.4522	0.707914	11.3034	-2.64723	0.00343018	-0.00512695	2.64723	
10.3804	-0.375	40.5569	4.97498	0.0216675	0.00335693	0.0527954	8.66394	-0.679894	40.4529	0.707926	11.3033	-2.63934	0.00344238	-0.00238037	2.63934	
9.81577	-0.125	40.7908	4.97223	0.0253296	0.00976563	0.0219727	8.67223	-0.683343	40.4536	0.707938	11.3032	-2.63093	0.00378418	-0.000976563	2.63093	
12.8995	0.0625	40.7376	4.9762	0.0259399	0.00213623	-0.0323486	8.68151	-0.686335	40.4545	0.707953	11.303	-2.62151	0.00377197	-0.00345459	2.62151	
10.1632	0.1875	40.5782	4.97772	0.0247192	0.00457764	0.0100708	8.69218	-0.688767	40.4554	0.70797	11.3028	-2.61067	0.00394287	-0.00274658	2.61067	
9.33801	-3.78125	40.2167	4.97711	0.0256348	0.00305176	-0.0314331	8.70368	-0.691206	40.4564	0.707988	11.3027	-2.599	0.00388184	-0.00545654	2.599	
8.77339	-1.09375	40.1742	4.98199	0.0241089	0.000915527	-0.0244141	8.71522	-0.694444	40.4573	0.708003	11.3025	-2.58732	0.00374756	-0.00668945	2.58732	
8.68652	-0.28125	40.5144	4.97772	0.0247192	0.00305176	0.0247192	8.72646	-0.698109	40.458	0.708015	11.3024	-2.57595	0.00375977	-0.00383301	2.57595	
9.51174	-0.46875	40.9928	4.98047	0.0234985	0.00396729	0.0088501	8.73743	-0.701541	40.4587	0.708028	11.3023	-2.56486	0.00372314	-0.0050293	2.56486	
8.68652	-0.375	40.5144	4.97772	0.0234985	0.000915527	-0.0411987	8.74824	-0.704666	40.4596	0.708044	11.3021	-2.55389	0.00358887	-0.00725098	2.55389	
9.94607	0.09375	40.5675	4.97955	0.0265503	0.0088501	0.0216675	8.75896	-0.707418	40.4606	0.708061	11.302	-2.54301	0.00388184	-0.00634766	2.54301	
11.8137	-0.59375	40.4931	4.97894	0.0241089	0.00274658	0.0158691	8.77014	-0.709757	40.4616	0.708079	11.3018	-2.53166	0.00374756	-0.00322266	2.53166	
8.81682	0.03125	40.2167	4.98077	0.0241089	0.00457764	0.0109863	8.78206	-0.711739	40.4626	0.708095	11.3016	-2.51958	0.00378418	-0.00380859	2.51958	
8.16533	-5.09375	40.0679	4.9826	0.0244141	0.00427246	-0.00213623	8.79394	-0.714082	40.4634	0.708109	11.3015	-2.50756	0.0038208	-0.00385742	2.50756	
8.64309	-1.34375	40.1954	4.98199	0.0262451	0.00396729	0.0143433	8.8052	-0.717684	40.4639	0.708119	11.3014	-2.49621	0.00379639	-0.00310059	2.49621	
9.81577	-0.625	40.5994	4.98047	0.0247192	0.00305176	0.00457764	8.81607	-0.72202	40.4643	0.708126	11.3013	-2.48527	0.00383301	-0.00302734	2.48527	
9.90264	-0.28125	40.4931	4.97711	0.0231934	0.00396729	-0.0201416	8.82702	-0.726202	40.4647	0.708133	11.3013	-2.47426	0.00393066	-0.00284424	2.47426	
9.8592	-0.53125	40.5994	4.98169	0.0244141	0.00396729	0.0119019	8.83823	-0.730054	40.4652	0.708141	11.3012	-2.46297	0.00394287	-0.00118408	2.46297	
8.94712	0.28125	40.7695	4.98169	0.0259399	0.00366211	0.00701904	8.84954	-0.733483	40.4657	0.70815	11.3011	-2.45157	0.00400391	-8.54492E-005	2.45157	
9.55518	-0.65625	40.6207	4.98322	0.0241089	0.00213623	-0.0247192	8.86076	-0.736434	40.4663	0.708161	11.301	-2.44025	0.00371094	-0.000744629	2.44025	
9.33801	-0.5625	40.6313	4.98505	0.022583	0.00396729	-0.00976563	8.87189	-0.739073	40.4671	0.708174	11.3009	-2.42899	0.00371094	-0.000476074	2.42899	
8.94712	-3.78125	40.727	4.98444	0.0253296	0.00274658	0.032959	8.88289	-0.742023	40.4679	0.708188	11.3007	-2.41785	0.00367432	-0.000927734	2.41785	
10.0329	-0.28125	40.7057	4.98596	0.0241089	0.00518799	-0.00823975	8.89378	-0.745715	40.4688	0.708204	11.3006	-2.4068	0.00383301	-0.000427246	2.4068	
10.0764	0.53125	40.7483	4.98108	0.0195313	0.00213623	-0.0216675	8.90483	-0.749406	40.4699	0.708223	11.3004	-2.39557	0.00377197	-0.000524902	2.39557	
9.9895	0.40625	41.6413	4.9823	0.0244141	0.00396729	-0.00671387	8.9162	-0.752319	40.4712	0.708246	11.3002	-2.38397	0.00377197	0.000708008	2.38397	
7.81787	-1.46875	40.4612	4.99146	0.0271606	0.00274658	0.0119019	8.92752	-0.754682	40.4729	0.708276	11.2999	-2.37237	0.00374756	0.00107422	2.37237	
8.2522	-1.28125	40.4293	4.99237	0.0259399	0.00854492	-0.0161743	8.93816	-0.757086	40.4747	0.708307	11.2996	-2.36142	0.00395508	-0.00168457	2.36142	
11.3793	-1.21875	40.5144	4.99634	0.0247192	0.00396729	-0.0436401	8.94842	-0.759751	40.4764	0.708338	11.2993	-2.35087	0.00372314	-0.00430908	2.35087	
8.42593	-0.53125	40.4825	4.99329	0.0234985	0.00457764	-0.0238037	8.95889	-0.762511	40.4781	0.708367	11.299	-2.34012	0.0038208	-0.00396729	2.34012	
9.46831	-5.71875	40.3124	4.99054	0.0265503	0.00518799	-0.017395	8.96928	-0.765943	40.4797	0.708395	11.2987	-2.32946	0.00384521	-0.00506592	2.32946	
8.51279	-1.375	40.6951	4.98932	0.0253296	0.00213623	0.010376	8.9793	-0.770849	40.4812	0.708422	11.2985	-2.31918	0.00380859	-0.00339355	2.31918	
9.46831	-0.375	40.323	4.98871	0.0222778	0.00457764	-0.0088501	8.98899	-0.776478	40.4827	0.708447	11.2982	-2.30924	0.00395508	-0.002771	2.30924	
7.90474	-1.34375	40.1635	4.9942	0.0265503	0.00396729	0.00762939	8.99824	-0.781966	40.4841	0.708471	11.298	-2.29976	0.0039917	-0.00345459	2.29976	
7.29668	-1.5625	40.1529	4.99542	0.0271606	0.00305176	0.0149536	9.00664	-0.787495	40.4852	0.708491	11.2978	-2.29117	0.00395508	-0.00321045	2.29117	
7.77444	-1.28125	40.2805	4.99298	0.0247192	0.00610352	0.0219727	9.01385	-0.793235	40.4861	0.708507	11.2976	-2.2838	0.0041626	-0.000683594	2.2838	
7.47041	-0.78125	40.8121	4.9881	0.0241089	0.00427246	0.0186157	9.01992	-0.799043	40.487	0.708522	11.2975	-2.27759	0.00397949	-0.000805664	2.27759	
9.72891	-0.6875	40.7483	4.98413	0.0259399	0.00396729	-0.0128174	9.02521	-0.8047	40.4879	0.708538	11.2974	-2.27214	0.00402832	-0.00195313	2.27214	
9.8592	-3.3125	40.8227	4.98932	0.0265503	0.00274658	-0.0549316	9.03043	-0.810508	40.4889	0.708556	11.2972	-2.26675	0.00395508	-0.00458984	2.26675	
9.20771	-0.375	40.642	4.9939	0.0241089	0.00427246	-0.0439453	9.03586	-0.816804	40.4901	0.708577	11.297	-2.26112	0.00395508	-0.00626221	2.26112	
9.29458	-0.78125	40.7695	4.99146	0.0228882	0.00152588	-0.0106812	9.04132	-0.823124	40.4914	0.708599	11.2968	-2.25544	0.00385742	-0.00726318	2.25544	
9.33801	-1.0625	41.418	4.99176	0.0253296	0.00396729	-0.00732422	9.04673	-0.829178	40.4929	0.708625	11.2965	-2.24977	0.00389404	-0.00773926	2.24977	
9.46831	-1.09375	40.5675	4.99054	0.0253296	0.00274658	0.00976563	9.05216	-0.835127	40.4947	0.708657	11.2962	-2.24405	0.00384521	-0.00654297	2.24405	
9.46831	-0.625	40.7695	4.99207	0.0247192	0.00366211	-0.00335693	9.05763	-0.84095	40.4966	0.70869	11.2959	-2.23825	0.00383301	-0.00715332	2.23825	
14.3328	-0.3125	40.8333	4.98718	0.0256348	0.00335693	0.0149536	9.06392	-0.846461	40.4986	0.708726	11.2955	-2.23162	0.0038208	-0.00683594	2.23162	
9.9895	0.03125	40.7376	4.98901	0.0259399	0.00396729	0.00366211	9.07183	-0.851443	40.5007	0.708763	11.2952	-2.22335	0.00389404	-0.00570068	2.22335	
8.3825	0.71875	40.4931	4.99298	0.0247192	0.00213623	0.00213623	9.08046	-0.85565	40.5029	0.708801	11.2948	-2.21435	0.0038208	-0.00522461	2.21435	
7.94817	-1.59375	40.4931	4.99725	0.0247192	0.00335693	0.020752	9.08854	-0.859198	40.505	0.708838	11.2944	-2.20591	0.00384521	-0.00571289	2.20591	
9.33801	-1.59375	40.323	4.99542	0.0280762	0.00427246	0.00518799	9.09591	-0.862719	40.507	0.708873	11.2941	-2.1982	0.00380859	-0.00517578	2.1982	
8.51279	-0.84375	41.0141	4.99115	0.0244141	0.00244141	0.020752	9.10283	-0.866455	40.509	0.708908	11.2938	-2.19095	0.0038208	-0.003479	2.19095	
11.3793	-0.8125	40.3762	4.9939	0.0228882	0.00366211	0.00823975	9.10971	-0.870158	40.511	0.708943	11.2934	-2.18372	0.00380859	-0.00288086	2.18372	
8.94712	-0.65625	40.6207	4.99603	0.0253296	0.00762939	-0.000915527	9.11694	-0.873676	40.513	0.708978	11.2931	-2.17615	0.00400391	-0.00339355	2.17615	
9.29458	-0.90625	40.3443	4.9881	0.0265503	0.00457764	0.0466919	9.12425	-0.877	40.5149	0.709011	11.2928	-2.16853	0.00384521	-0.000878906	2.16853	
9.12085	-1.28125	40.3762	4.99481	0.0259399	0.00274658	-0.00213623	9.13132	-0.880245	40.5167	0.709042	11.2925	-2.16115	0.00379639	0.00078125	2.16115	
8.16533	-4.28125	40.1529	4.99786	0.0271606	0.00396729	0.020752	9.13802	-0.884032	40.5183	0.70907	11.2922	-2.15418	0.00377197	0.00256348	2.15418	
8.77339	-1.65625	40.4506	4.98688	0.0265503	0.00152588	-0.0390625	9.14412	-0.888923	40.5197	0.709095	11.292	-2.14784	0.00362549	0.00169678	2.14784	
9.81577	-0.46875	40.6845	4.98688	0.0241089	0.00366211	-0.0561523	9.14985	-0.894343	40.521	0.709117	11.2917	-2.1419	0.00368652	-0.000964355	2.1419	
10.4238	0.15625	41.7689	4.98657	0.0256348	0.00396729	0.0128174	9.15572	-0.899396	40.5225	0.709143	11.2915	-2.13577	0.00366211	-9.76563E-005	2.13577	
9.8592	-0.625	39.4087	4.98444	0.0247192	0.00274658	0.0186157	9.162	-0.903836	40.5241	0.709172	11.2912	-2.12922	0.00361328	0.000341797	2.12922	
8.42593	-0.375	40.7483	4.98535	0.0256348	0.00915527	0.0100708	9.16835	-0.907788	40.5256	0.709198	11.291	-2.12261	0.00385742	0.000146484	2.12261	
13.7247	-0.53125	40.5144	4.99298	0.0250244	0.00274658	-0.00579834	9.17506	-0.911334	40.5269	0.709222	11.2907	-2.11567	0.00372314	-0.000964355	2.11567	
7.55728	-0.59375	40.8333	4.98322	0.0234985	0.00274658	0.0112915	9.18259	-0.914506	40.5283	0.709245	11.2905	-2.10791	0.00366211	-0.00125732	2.10791	
9.33801	-1.03125	40.6632	4.9881	0.0222778	0.00274658	-0.0170898	9.19007	-0.917426	40.5297	0.70927	11.2903	-2.10019	0.00361328	-0.00142822	2.10019	
9.90264	-0.28125	40.8121	4.98993	0.0256348	0.00366211	-0.0527954	9.1972	-0.920131	40.5312	0.709297	11.29	-2.0928	0.0036499	-0.00134277	2.0928	
11.1188	0.375	40.8758	4.98047	0.0247192	0.00305176	-0.0204468	9.20462	-0.922359	40.5329	0.709325	11.2897	-2.08511	0.00360107	-0.000402832	2.08511	
10.5107	0.15625	41.4287	4.98077	0.0241089	0.00274658	-0.0112915	9.21268	-0.92384	40.5347	0.709358	11.2894	-2.07673	0.0036499	-0.000427246	2.07673	
8.55623	-1.84375	40.5356	4.98932	0.0247192	0.00335693	0.0134277	9.22106	-0.924876	40.5368	0.709395	11.2891	-2.068	0.00362549	0.000402832	2.068	
8.07847	-1.125	40.5675	4.98505	0.0256348	0.00274658	0.0256348	9.22896	-0.926023	40.539	0.709433	11.2887	-2.05972	0.00362549	0.0010376	2.05972	
11.8137	-0.625	40.3443	4.98322	0.0241089	0.00213623	0.00335693	9.23653	-0.927288	40.5411	0.709469	11.2883	-2.0518	0.00356445	0.00130615	2.0518	
8.94712	-1.53125	40.4506	4.9704	0.0234985	0.00396729	0.000610352	9.24441	-0.92854	40.5431	0.709503	11.288	-2.0436	0.00358887	0.000732422	2.0436	
9.59861	-1.84375	40.2805	4.98077	0.0234985	0.00274658	0.0363159	9.25237	-0.930029	40.5448	0.709535	11.2877	-2.03533	0.00354004	0.00203857	2.03533	
9.25115	-1.21875	40.6845	4.98535	0.0259399	0.00396729	0.00701904	9.26011	-0.931889	40.5465	0.709563	11.2874	-2.02731	0.00361328	0.00223389	2.02731	
9.12085	-0.3125	40.3443	4.98444	0.0241089	0.00305176	0.00457764	9.26762	-0.933817	40.548	0.70959	11.2872	-2.01954	0.00360107	0.00158691	2.01954	
8.99055	-1.34375	40.2805	4.98108	0.0256348	0.00396729	0.0192261	9.27477	-0.935594	40.5494	0.709615	11.2869	-2.01215	0.00358887	0.00214844	2.01215	
9.12085	-1.59375	40.0147	4.98444	0.0280762	0.00305176	-0.0289917	9.28153	-0.93744	40.5506	0.709636	11.2867	-2.00519	0.00361328	0.000158691	2.00519	
8.2522	-1.0625	40.3443	4.9823	0.0238037	0.00335693	0.0158691	9.2878	-0.939508	40.5515	0.709651	11.2866	-1.99877	0.00360107	0.000463867	1.99877	
14.0722	0.0625	40.6526	4.97711	0.0253296	0.00427246	-0.00976563	9.29425	-0.941488	40.5522	0.709664	11.2864	-1.9922	0.0034668	0.000109863	1.9922	
10.4238	-0.15625	40.844	4.97345	0.0238037	0.00518799	0.017395	9.30197	-0.942984	40.553	0.709677	11.2863	-1.98435	0.00349121	-0.00106201	1.98435	
9.9895	2.1875	40.6632	4.97589	0.0244141	0.00274658	0.0241089	9.31062	-0.943542	40.5538	0.709691	11.2862	-1.97556	0.00349121	-1.2207E-005	1.97556	
9.72891	-6.6875	40.6207	4.97131	0.0253296	0.00396729	-0.017395	9.31941	-0.943878	40.5547	0.709707	11.286	-1.96662	0.00349121	-0.00153809	1.96662	
10.5541	-0.59375	40.3974	4.97955	0.0234985	0.00335693	-0.027771	9.32831	-0.945445	40.5556	0.709723	11.2859	-1.95756	0.00356445	-0.00108643	1.95756	
9.12085	-0.28125	41.2054	4.97711	0.0234985	0.00213623	-0.00457764	9.33732	-0.947635	40.5565	0.709738	11.2857	-1.9484	0.00350342	0.000976563	1.9484	
9.55518	-0.21875	40.7057	4.97986	0.0259399	0.00152588	0.0280762	9.34617	-0.949375	40.5576	0.709757	11.2855	-1.93937	0.00340576	0.00158691	1.93937	
9.8592	-0.15625	40.7908	4.97742	0.0222778	-0.000610352	0.0296021	9.35482	-0.9506	40.5588	0.709779	11.2853	-1.93052	0.00327148	0.00202637	1.93052	
13.7681	0	40.7695	4.97345	0.0247192	0.00488281	-0.0167847	9.36403	-0.951274	40.5601	0.709802	11.2851	-1.92108	0.00310059	0.000952148	1.92108	
10.2501	-0.1875	40.7908	4.96674	0.0247192	0.00366211	0.00915527	9.37451	-0.951389	40.5615	0.709826	11.2849	-1.91036	0.00313721	0.00155029	1.91036	
8.64309	-0.625	40.2805	4.97467	0.0244141	0.000305176	-0.00305176	9.38546	-0.951063	40.5629	0.709851	11.2846	-1.89917	0.00303955	0.000976563	1.89917	
8.77339	-0.84375	40.2486	4.97681	0.0259399	0.00366211	0.0170898	9.39584	-0.950513	40.5642	0.709873	11.2844	-1.88858	0.00307617	0.00234375	1.88858	
9.07742	-0.625	40.3443	4.97284	0.0231934	0.00213623	0.00274658	9.40549	-0.949848	40.5652	0.709891	11.2842	-1.87875	0.00301514	0.00456543	1.87875	
8.07847	-0.71875	40.7483	4.97284	0.0241089	0.00274658	-0.0134277	9.41441	-0.949054	40.5661	0.709907	11.2841	-1.86968	0.00300293	0.00484619	1.86968	
9.51174	-0.78125	38.6645	4.97681	0.0241089	0.00213623	-0.015564	9.42256	-0.948139	40.5667	0.709918	11.284	-1.86143	0.00297852	0.00467529	1.86143	
9.29458	-0.59375	40.5782	4.97772	0.0259399	0.00274658	-0.0357056	9.43022	-0.947113	40.5668	0.709918	11.284	-1.85376	0.0029541	0.00270996	1.85376	
13.8984	-0.71875	40.4931	4.98169	0.0283813	0.00274658	0.00335693	9.43828	-0.945953	40.5665	0.709914	11.284	-1.84574	0.0029541	0.00181885	1.84574	
2.38879	-0.96875	40.1954	4.97101	0.0271606	0.00152588	-0.00396729	9.44633	-0.944712	40.5661	0.709907	11.2841	-1.83776	0.00292969	0.00152588	1.83776	
7.55728	1.40625	40.1423	4.97772	0.0256348	0.00213623	0.0283813	9.4523	-0.943121	40.5656	0.709898	11.2842	-1.83187	0.00285645	0.00263672	1.83187	
8.59966	-0.96875	40.2592	4.97528	0.0234985	0.00274658	0.0271606	9.45625	-0.940866	40.5649	0.709885	11.2843	-1.82805	0.00285645	0.00227051	1.82805	
10.337	0.09375	40.5569	4.97284	0.0247192	0.00457764	-0.00640869	9.45964	-0.938172	40.564	0.70987	11.2844	-1.82481	0.00288086	0.0017334	1.82481	
18.9801	0.375	40.7695	4.96643	0.0241089	0.00335693	-0.00823975	9.46452	-0.935054	40.5631	0.709855	11.2846	-1.82007	0.00289307	0.0012207	1.82007	
10.1632	-0.28125	40.6632	4.96704	0.0247192	0.00335693	0.00640869	9.47243	-0.931377	40.5624	0.709842	11.2847	-1.81229	0.00286865	0.000708008	1.81229	
9.8592	-0.65625	40.5569	4.97192	0.0259399	0	0.0418091	9.48182	-0.927382	40.5617	0.70983	11.2848	-1.80302	0.00274658	0.00354004	1.80302	
12.0743	-0.71875	40.4293	4.97498	0.0256348	0.00152588	-0.00946045	9.4915	-0.923309	40.5611	0.709818	11.2849	-1.79345	0.00267334	0.00252686	1.79345	
9.64204	-0.46875	40.323	4.97284	0.0241089	0.00457764	-0.000915527	9.50172	-0.919203	40.5604	0.709806	11.2851	-1.78335	0.00268555	0.00288086	1.78335	
10.0329	-1.03125	40.5144	4.97894	0.0238037	0.00427246	0.032959	9.51211	-0.915087	40.5596	0.709792	11.2852	-1.77309	0.00264893	0.00350342	1.77309	
9.46831	-0.28125	40.4612	4.97345	0.0247192	0.000610352	0.00518799	9.52232	-0.910983	40.5587	0.709778	11.2853	-1.76302	0.00256348	0.00274658	1.76302	
10.945	0.78125	40.8121	4.96979	0.0231934	0.00366211	-0.0256348	9.53245	-0.906583	40.558	0.709764	11.2855	-1.75302	0.00255127	0.00241699	1.75302	
10.5541	0.03125	41.1097	4.9707	0.0250244	0.00274658	0.00610352	9.54281	-0.901571	40.5573	0.709753	11.2856	-1.74276	0.00252686	0.00377197	1.74276	
8.33906	-1.03125	38.7283	4.97864	0.0259399	0.00335693	0.017395	9.55316	-0.896203	40.5567	0.709742	11.2857	-1.73253	0.00257568	0.00465088	1.73253	
8.2522	-0.71875	40.1529	4.97528	0.0259399	0.00274658	-0.0405884	9.56272	-0.890893	40.5555	0.709721	11.2859	-1.72317	0.00262451	0.0019043	1.72317	
12.5086	-0.40625	40.3336	4.97955	0.0265503	0.00427246	-0.00823975	9.57181	-0.885662	40.5539	0.709693	11.2862	-1.71435	0.00281982	0.000390625	1.71435	
10.2067	-0.25	40.642	4.98199	0.0222778	-0.00518799	-0.03479	9.58139	-0.88034	40.5523	0.709664	11.2864	-1.70505	0.00241699	-0.00032959	1.70505	
9.29458	2.4375	40.4931	4.97437	0.0241089	0.00396729	-0.0183105	9.59124	-0.87442	40.5506	0.709636	11.2867	-1.69548	0.0024292	-0.00142822	1.69548	
8.94712	0.125	40.3974	4.97589	0.0250244	0.00213623	0.0344849	9.60064	-0.867428	40.5491	0.709609	11.287	-1.68634	0.00250244	7.32422E-005	1.68634	
8.64309	-0.28125	40.6845	4.97711	0.0241089	0.00152588	-0.0354004	9.60932	-0.859767	40.5475	0.709582	11.2872	-1.67793	0.00241699	-0.00202637	1.67793	
8.99055	-0.6875	40.7908	4.97711	0.0247192	0.00427246	-0.020752	9.6172	-0.852016	40.5461	0.709556	11.2875	-1.67029	0.00250244	-0.00296631	1.67029	
8.16533	-1.40625	40.1316	4.97955	0.0253296	0.00274658	0.0320435	9.62423	-0.844481	40.5447	0.709532	11.2877	-1.66349	0.00250244	-0.00114746	1.66349	
8.99055	-1.21875	40.3974	4.97925	0.0244141	-0.00213623	-0.00183105	9.63036	-0.837418	40.5433	0.709507	11.288	-1.6576	0.00233154	-0.000598145	1.6576	
12.9864	0.09375	40.4825	4.97437	0.0234985	0.00427246	0	9.63638	-0.830663	40.5418	0.709481	11.2882	-1.65184	0.00239258	0.000830078	1.65184	
11.1188	-0.28125	40.4612	4.97467	0.0222778	0.00274658	-0.0195313	9.64335	-0.823833	40.5403	0.709455	11.2885	-1.64512	0.00239258	-8.54492E-005	1.64512	
9.9895	1.125	40.4506	4.97437	0.0247192	0.00366211	0.0201416	9.65112	-0.816628	40.5388	0.709429	11.2887	-1.63761	0.00247803	0.000878906	1.63761	
9.33801	-0.28125	40.5144	4.97772	0.0241089	0.00213623	-0.00366211	9.65889	-0.808905	40.5373	0.709403	11.289	-1.63008	0.00247803	-0.000402832	1.63008	
8.64309	-0.71875	40.6632	4.97589	0.0256348	0.00183105	0.00854492	9.66619	-0.800975	40.5359	0.709378	11.2892	-1.62303	0.00244141	-0.00114746	1.62303	
9.77234	-0.59375	40.6845	4.97772	0.0216675	0.00366211	-0.010376	9.67288	-0.793184	40.5346	0.709355	11.2894	-1.61656	0.00240479	-0.00130615	1.61656	
9.46831	-0.46875	37.9841	4.97955	0.0253296	0.00305176	0.00976563	9.67918	-0.785541	40.5329	0.709327	11.2897	-1.61054	0.00239258	-0.000585937	1.61054	
9.46831	0.34375	40.6101	4.97467	0.0231934	-0.00213623	0.00854492	9.68517	-0.777861	40.5306	0.709286	11.2901	-1.60494	0.00217285	-0.000500488	1.60494	
