7.38354	-0.96875	50.0189	4.99146	0.0247192	0.00213623	0.0448608	7.38354	-0.96875	50.0189	0.875331	9.53321	-2.14967	0.00213623	0.0448608	2.14967	
6.42803	-0.53125	50.189	4.99207	0.0234985	0.00335693	0.0308228	7.3834	-0.968682	50.0189	0.875331	9.53321	-2.14981	0.00274658	0.0378418	2.14981	
6.73206	-6	50.2315	4.98901	0.0259399	0.00335693	-0.0134277	7.38286	-0.969261	50.019	0.875333	9.53318	-2.15033	0.00295003	0.020752	2.15033	
7.03608	-0.625	50.0402	4.99023	0.0247192	0.0012207	-0.0253296	7.38193	-0.97126	50.0192	0.875337	9.53314	-2.15121	0.0025177	0.00923157	2.15121	
7.64414	-0.375	50.3697	4.98657	0.0241089	0.00427246	0.00274658	7.38087	-0.97377	50.0195	0.875342	9.53308	-2.15221	0.00286865	0.00793457	2.15221	
7.55728	-0.3125	50.4016	4.98383	0.0271606	0.00213623	-0.00976563	7.3799	-0.975849	50.02	0.87535	9.53299	-2.15309	0.00274658	0.00498454	2.15309	
5.8634	-1.71875	50.1677	4.98688	0.0265503	0.00396729	0.0088501	7.37883	-0.977671	50.0206	0.875361	9.53287	-2.15404	0.00292097	0.00553676	2.15404	
6.03713	-1.46875	49.8488	4.99298	0.0265503	0.00305176	0.0204468	7.37714	-0.979633	50.0213	0.875373	9.53273	-2.15559	0.00293732	0.00740051	2.15559	
16.2438	-1.1875	49.9338	5.00153	0.0256348	0.00335693	0.0491333	7.37624	-0.981825	50.0219	0.875383	9.53261	-2.15637	0.00298394	0.0120375	2.15637	
5.9937	-1.28125	49.9126	4.99054	0.0265503	0.00152588	0.0454712	7.3777	-0.984127	50.0224	0.875393	9.5325	-2.15481	0.00283813	0.0153809	2.15481	
6.42803	-9.90625	50.1039	4.98566	0.0262451	0.00335693	0.020752	7.3799	-0.987856	50.0229	0.875401	9.53241	-2.15251	0.0028853	0.0158691	2.15251	
6.34116	-1.0625	50.2953	4.98657	0.0234985	0.00274658	0.0509644	7.38136	-0.994279	50.0234	0.87541	9.53231	-2.15095	0.00287374	0.0187937	2.15095	
6.08057	-0.78125	50.7099	4.98474	0.0247192	0.00152588	-0.00823975	7.38209	-1.00185	50.0241	0.875422	9.53217	-2.15008	0.00277006	0.0167142	2.15008	
6.21086	-0.65625	49.9551	4.98749	0.027771	0.00396729	-0.0152588	7.38205	-1.00904	50.025	0.875438	9.53199	-2.14993	0.00285557	0.0144305	2.14993	
5.38564	-1.53125	49.7318	4.98474	0.0271606	-0.00152588	-0.0265503	7.38114	-1.01592	50.0259	0.875454	9.5318	-2.15066	0.00256348	0.0116984	2.15066	
5.47251	-1.53125	49.9338	4.99146	0.0241089	0.00274658	-0.0183105	7.37916	-1.02274	50.0267	0.875467	9.53165	-2.15248	0.00257492	0.00982285	2.15248	
7.25325	-0.46875	50.1571	4.99176	0.0241089	0.00366211	0.0149536	7.37634	-1.02947	50.0274	0.875479	9.53151	-2.15518	0.00263887	0.0101247	2.15518	
7.90474	-2.78125	50.4123	4.97437	0.0274658	0.00274658	0.0338745	7.37335	-1.03615	50.0281	0.875492	9.53136	-2.15801	0.00264486	0.0114441	2.15801	
7.07952	-0.09375	50.2103	4.97803	0.0241089	0.00213623	0.0204468	7.37058	-1.0429	50.029	0.875508	9.53118	-2.16061	0.00261809	0.0119179	2.16061	
7.29668	0.03125	50.1146	4.97925	0.0259399	0.00335693	-0.0180054	7.36788	-1.04922	50.03	0.875525	9.53099	-2.16311	0.00265503	0.0104218	2.16311	
6.51489	-0.59375	48.371	4.97894	0.0241089	0.00213623	-0.0527954	7.36507	-1.05477	50.0308	0.875539	9.53084	-2.16576	0.00263032	0.00741141	2.16576	
6.38459	-0.46875	50.1465	4.97742	0.0259399	0.00396729	-0.0363159	7.36194	-1.05972	50.031	0.875543	9.53079	-2.16884	0.0026911	0.00542381	2.16884	
7.90474	-0.53125	50.1677	4.98077	0.0256348	-0.00335693	0.00366211	7.35857	-1.06416	50.031	0.875543	9.53078	-2.17221	0.00242814	0.00534721	2.17221	
11.2925	-0.375	50.2953	4.98016	0.0231934	0.00152588	-0.00701904	7.35594	-1.06808	50.0312	0.875546	9.53075	-2.17481	0.00239054	0.00483195	2.17481	
7.12295	0.15625	50.391	4.97528	0.0241089	0.00213623	-0.0289917	7.35468	-1.07137	50.0315	0.875551	9.5307	-2.17602	0.00238037	0.003479	2.17602	
7.9916	2.375	50.189	4.97192	0.0259399	0.00366211	0.0613403	7.35409	-1.07353	50.0319	0.875559	9.53061	-2.17651	0.00244141	0.00413818	2.17651	
6.38459	-0.78125	49.8488	4.97498	0.0268555	0.00213623	0.0515747	7.35354	-1.0743	50.0324	0.875568	9.5305	-2.17696	0.00239258	0.00496826	2.17696	
5.29878	-1.21875	49.3916	4.98047	0.0247192	0.000610352	-0.0299072	7.35249	-1.07445	50.0328	0.875574	9.53043	-2.17794	0.00228271	0.00430908	2.17794	
6.16743	-1.03125	48.2328	4.97589	0.0265503	0.00549316	0.0180054	7.3505	-1.07458	50.0326	0.875571	9.53046	-2.17996	0.00245361	0.00604248	2.17996	
6.47146	-0.6875	50.0295	4.9762	0.0250244	-0.000915527	-0.0454712	7.34777	-1.07465	50.0318	0.875557	9.53062	-2.18286	0.00224609	0.00411377	2.18286	
9.59861	-0.65625	49.987	4.97437	0.0250244	0.0012207	-0.0793457	7.34502	-1.07453	50.0308	0.875538	9.53084	-2.18582	0.00220947	0.00133057	2.18582	
6.08057	-0.46875	50.0189	4.96735	0.0247192	0.00396729	0.0143433	7.34273	-1.07414	50.0297	0.87552	9.53105	-2.18831	0.00220947	0.00155029	2.18831	
6.29773	-2.84375	49.9551	4.97894	0.0262451	0.00396729	-0.017395	7.34032	-1.07377	50.0287	0.875502	9.53125	-2.19093	0.00224609	3.66211E-005	2.19093	
6.16743	-0.53125	49.8807	4.97437	0.0283813	0.00152588	0.0360107	7.33729	-1.0738	50.0277	0.875484	9.53146	-2.19416	0.00217285	-0.000488281	2.19416	
5.38564	-1.28125	49.6362	4.97833	0.0271606	0.00366211	0.0613403	7.33355	-1.07395	50.0265	0.875464	9.53168	-2.19814	0.0022583	0.000146484	2.19814	
5.21191	-1.5	48.6581	4.9762	0.0259399	0.00366211	-0.0134277	7.32882	-1.07415	50.0251	0.875439	9.53197	-2.20316	0.00227051	-0.0012207	2.20316	
6.55833	-0.1875	50.2315	4.97192	0.0253296	0.00396729	0.0137329	7.32317	-1.07437	50.0232	0.875407	9.53234	-2.20917	0.00231934	-0.00270996	2.20917	
8.77339	0.46875	50.3591	4.96979	0.0250244	0.00274658	-0.0595093	7.31738	-1.07414	50.0214	0.875374	9.53271	-2.21533	0.00236816	-0.00476074	2.21533	
11.3793	-0.09375	50.2953	4.96765	0.0265503	0.00396729	0.00701904	7.31276	-1.07314	50.0197	0.875346	9.53304	-2.22028	0.00236816	-0.00386963	2.22028	
6.73206	-1.8125	50.1784	4.96857	0.0247192	0.00213623	0.032959	7.3097	-1.07175	50.0183	0.875321	9.53332	-2.22362	0.00251465	-0.00148926	2.22362	
6.64519	2.28125	49.9976	4.97223	0.0262451	0.00427246	0.0567627	7.3071	-1.06996	50.0171	0.875299	9.53358	-2.22648	0.00257568	0.00151367	2.22648	
6.47146	-0.59375	50.1039	4.97467	0.0259399	0.00152588	0.00274658	7.30416	-1.06724	50.0159	0.875278	9.53381	-2.22965	0.00249023	0.00102539	2.22965	
6.29773	-0.28125	49.785	4.97498	0.0234985	0.00274658	0.00335693	7.30081	-1.06383	50.0147	0.875258	9.53405	-2.23324	0.00249023	-0.000195313	2.23324	
7.25325	-0.71875	52.3153	4.97345	0.0256348	0.00427246	-0.0427246	7.29713	-1.06017	50.0139	0.875243	9.53421	-2.23708	0.00257568	-0.00272217	2.23708	
8.72996	-0.28125	50.3166	4.96948	0.0262451	-0.000915527	-0.0402832	7.29363	-1.05628	50.0138	0.875242	9.53422	-2.2406	0.00240479	-0.00361328	2.2406	
10.7279	0.5	50.189	4.96796	0.0241089	0.00152588	-0.102844	7.29122	-1.052	50.0142	0.875249	9.53414	-2.24292	0.00238037	-0.00561523	2.24292	
6.16743	-0.875	49.6787	4.97253	0.0247192	0.00457764	-0.0210571	7.29001	-1.04724	50.0147	0.875257	9.53405	-2.24404	0.00240479	-0.00500488	2.24404	
5.16848	-2.65625	49.7425	4.97986	0.0280762	0.00335693	0.0271606	7.28871	-1.0426	50.015	0.875262	9.53399	-2.24528	0.00267334	-0.00406494	2.24528	
5.60281	-1.21875	49.7318	4.97681	0.0262451	0.00213623	0.0442505	7.28635	-1.03863	50.0151	0.875265	9.53397	-2.24762	0.00269775	-0.00201416	2.24762	
5.12505	-0.65625	49.7637	4.98047	0.0231934	0.00396729	0.0320435	7.28289	-1.03504	50.0151	0.875264	9.53398	-2.25109	0.002771	0.000427246	2.25109	
6.51489	-0.71875	50.1146	4.97833	0.0256348	0.00274658	-0.0369263	7.2785	-1.03144	50.0149	0.875261	9.53401	-2.25551	0.00273437	-0.00350342	2.25551	
5.90684	-0.78125	50.0083	4.97681	0.0259399	0.000305176	-0.00457764	7.27348	-1.02777	50.0147	0.875258	9.53404	-2.26056	0.00266113	-0.00574951	2.26056	
6.77549	-0.78125	49.9976	4.98199	0.0271606	0.00457764	-0.032959	7.26802	-1.02406	50.0146	0.875256	9.53407	-2.26605	0.00281982	-0.00587158	2.26605	
-4.29983	-1.125	49.8807	4.9826	0.0265503	0.00274658	0.032959	7.26059	-1.02039	50.0144	0.875253	9.5341	-2.27351	0.00270996	-0.00527344	2.27351	
4.47356	-2.59375	49.7637	4.9826	0.0253296	0.00213623	0.00274658	7.24932	-1.01709	50.0142	0.875248	9.53415	-2.28483	0.00283203	-0.00334473	2.28483	
5.03818	4.375	49.583	4.98535	0.0265503	0.00366211	-0.0335693	7.23545	-1.01357	50.0138	0.875241	9.53423	-2.29878	0.00292969	-0.00151367	2.29878	
6.34116	-0.46875	50.2315	4.97772	0.0250244	0.00335693	-0.0549316	7.22082	-1.00866	50.0133	0.875232	9.53434	-2.31352	0.00290527	-0.00428467	2.31352	
6.38459	0.375	50.0933	4.97223	0.0253296	0.00152588	-0.0515747	7.20595	-1.00271	50.0128	0.875224	9.53443	-2.32848	0.00280762	-0.00565186	2.32848	
6.68862	-0.09375	52.5279	4.97894	0.0265503	0.00396729	0.0634766	7.19114	-0.996308	50.0127	0.875223	9.53444	-2.3433	0.00290527	-0.00455322	2.3433	
7.20981	-0.21875	50.0189	4.98444	0.0268555	-0.000915527	0.0784302	7.17656	-0.98952	50.0135	0.875236	9.53429	-2.35772	0.00272217	-0.00386963	2.35772	
4.47356	-0.28125	50.1571	4.98444	0.0247192	0.00152588	0.020752	7.16201	-0.982482	50.0147	0.875257	9.53405	-2.37204	0.00263672	-0.00250244	2.37204	
-6.08057	-0.65625	50.1039	4.97101	0.0241089	0.00427246	0.0234985	7.14509	-0.975303	50.0158	0.875277	9.53382	-2.38873	0.00264893	-0.00211182	2.38873	
6.03713	2	50.1465	4.98474	0.0274658	0.00213623	0.00701904	7.12407	-0.967706	50.017	0.875298	9.53358	-2.40951	0.00262451	0.000549316	2.40951	
6.47146	0.15625	50.1784	4.98169	0.0247192	0.00213623	-0.0341797	7.10129	-0.95923	50.0183	0.87532	9.53333	-2.43204	0.00255127	-0.00109863	2.43204	
6.51489	-0.09375	50.1677	4.98444	0.0204468	0.00396729	-0.00976563	7.07886	-0.950112	50.0196	0.875342	9.53308	-2.45422	0.00262451	-0.00280762	2.45422	
7.12295	0.46875	50.6143	4.98352	0.0247192	0.00335693	-0.022583	7.05695	-0.940654	50.021	0.875367	9.53279	-2.47585	0.00258789	-0.00598145	2.47585	
5.42908	-0.84375	49.9764	4.98688	0.0280762	0.000610352	-0.0408936	7.03549	-0.930943	50.0225	0.875394	9.53248	-2.497	0.00255127	-0.00772705	2.497	
3.90894	-1.59375	49.785	4.99664	0.0271606	0.0088501	0.00274658	7.0138	-0.921429	50.0241	0.875421	9.53217	-2.51837	0.00279541	-0.00775146	2.51837	
-0.260596	-1.78125	49.7637	4.98688	0.0247192	0.00396729	0.0585938	6.99054	-0.912578	50.0254	0.875445	9.5319	-2.54136	0.0027832	-0.00369873	2.54136	
6.03713	-1.34375	49.8488	4.99146	0.0241089	0.00152588	0.0473022	6.96521	-0.904478	50.0266	0.875466	9.53167	-2.56645	0.00288086	-0.000195313	2.56645	
5.90684	4.21875	50.0614	4.99176	0.0259399	0.00335693	0.0112915	6.9392	-0.896138	50.0277	0.875484	9.53146	-2.59226	0.0029541	0.00437012	2.59226	
5.38564	-1.03125	49.9764	4.9939	0.0271606	0.00366211	-0.0231934	6.91339	-0.886593	50.0286	0.875501	9.53126	-2.61787	0.00291748	0.00428467	2.61787	
5.38564	-1.46875	49.9551	4.98627	0.0247192	0.00183105	0.00152588	6.88762	-0.876725	50.0296	0.875517	9.53108	-2.64346	0.00285645	0.00325928	2.64346	
4.90789	-1.21875	50.9013	4.99664	0.0253296	0.00427246	-0.0143433	6.86174	-0.867461	50.0306	0.875535	9.53088	-2.66914	0.00294189	0.000915527	2.66914	
5.12505	-2.125	49.6999	4.99207	0.027771	0.00701904	0.0534058	6.83565	-0.858919	50.0317	0.875555	9.53064	-2.69499	0.00306396	0.00177002	2.69499	
3.56147	-1.1875	49.8594	4.99573	0.0271606	0.00244141	0.0100708	6.80915	-0.851175	50.0329	0.875575	9.53042	-2.72127	0.00305176	0.0036499	2.72127	
15.766	-0.40625	50.274	4.9881	0.0234985	0.00457764	0.0613403	6.78368	-0.843934	50.0339	0.875593	9.53021	-2.74653	0.00322266	0.00628662	2.74653	
7.38354	2.09375	50.4016	4.98474	0.0247192	0.00335693	-0.0564575	6.76149	-0.836407	50.035	0.875612	9.53	-2.7685	0.00317383	0.00534668	2.7685	
7.03608	-0.9375	50.3272	4.99023	0.0259399	0.00152588	-0.0222778	6.74171	-0.828184	50.0362	0.875634	9.52974	-2.78804	0.003125	0.00313721	2.78804	
6.2543	-0.40625	50.4016	4.98932	0.0256348	0.00396729	-0.0595093	6.72273	-0.819762	50.0376	0.875659	9.52946	-2.80673	0.00319824	0.000646973	2.80673	
6.29773	-0.6875	51.0289	4.99084	0.0253296	0.00335693	-0.0363159	6.70425	-0.811504	50.0393	0.875688	9.52913	-2.82488	0.00318604	0.000537109	2.82488	
5.55938	-0.65625	50.2528	4.98901	0.027771	0.00274658	-0.0134277	6.68604	-0.803409	50.0413	0.875723	9.52873	-2.84268	0.00316162	0.00219727	2.84268	
5.73311	-0.5625	50.2634	4.99054	0.0253296	0.0106812	0.00762939	6.66792	-0.795496	50.0435	0.875762	9.52829	-2.86037	0.00352783	0.00456543	2.86037	
6.124	-0.78125	50.189	4.98932	0.0222778	0.00274658	0.0393677	6.64987	-0.787763	50.0458	0.875801	9.52784	-2.87796	0.003479	0.00360107	2.87796	
6.86235	-0.21875	50.4654	4.98657	0.0234985	0.00213623	-0.0564575	6.63219	-0.780175	50.0481	0.875841	9.52738	-2.89519	0.00360107	-0.00179443	2.89519	
7.81787	-4.34375	50.4867	4.9881	0.0259399	0.00457764	-0.0509644	6.6153	-0.773231	50.0505	0.875884	9.52689	-2.91159	0.00372314	-0.00466309	2.91159	
5.81997	-1.09375	50.0827	4.99146	0.0280762	0.00183105	0.0256348	6.59929	-0.767601	50.0531	0.875929	9.52638	-2.92709	0.00362549	-0.00457764	2.92709	
4.86445	-1.28125	50.1784	4.9939	0.0228882	0.00274658	-0.0534058	6.58351	-0.762903	50.0556	0.875974	9.52586	-2.94235	0.0036499	-0.00699463	2.94235	
5.9937	-1	50.3166	4.99237	0.0250244	0.00396729	-0.00976563	6.56755	-0.758618	50.0582	0.876019	9.52535	-2.9578	0.00372314	-0.00601807	2.9578	
5.64624	-1.21875	50.1039	4.9939	0.0271606	0.00488281	0.0418091	6.55155	-0.75471	50.0608	0.876064	9.52483	-2.97328	0.00375977	-0.00395508	2.97328	
3.56147	-0.78125	50.0508	4.99237	0.0250244	0.00274658	0.0601196	6.53529	-0.751125	50.0633	0.876108	9.52432	-2.98904	0.00373535	-0.000646973	2.98904	
15.8095	-1.21875	50.1039	5.00031	0.0256348	0.00396729	0.00640869	6.51996	-0.74782	50.0658	0.876151	9.52383	-3.00387	0.00386963	0.00124512	3.00387	
6.29773	-0.53125	50.0614	4.9884	0.0256348	0.00274658	-0.057373	6.50757	-0.744747	50.0682	0.876193	9.52335	-3.01579	0.00362549	-0.00115967	3.01579	
5.73311	-1.28125	50.1252	4.99023	0.0265503	0.00152588	0.0271606	6.49686	-0.741873	50.0705	0.876234	9.52289	-3.02603	0.00352783	-0.00241699	3.02603	
5.16848	-1.84375	49.9019	4.9942	0.0274658	0.00457764	-0.0106812	6.48606	-0.739404	50.0727	0.876272	9.52245	-3.03639	0.0036499	-0.00473633	3.03639	
4.82102	-2.28125	50.5398	4.99023	0.0253296	0.00183105	0.043335	6.47484	-0.737688	50.0749	0.87631	9.52201	-3.04717	0.00358887	-0.00345459	3.04717	
6.124	-0.375	50.3591	4.98352	0.022583	0.00152588	-0.0296021	6.46325	-0.736626	50.0771	0.87635	9.52156	-3.05831	0.00350342	-0.00371094	3.05831	
7.64414	0.28125	50.274	4.98047	0.0253296	0.000610352	0.0012207	6.45189	-0.735571	50.0795	0.876391	9.52109	-3.0692	0.00345459	-0.00372314	3.0692	
6.94922	-0.625	50.0508	4.9826	0.0253296	0.00305176	-0.0216675	6.44132	-0.734163	50.0819	0.876433	9.52061	-3.07929	0.00340576	-0.00401611	3.07929	
6.55833	-0.21875	50.1252	4.98657	0.0247192	0.00213623	-0.0674438	6.43148	-0.732534	50.0842	0.876474	9.52014	-3.08867	0.00321045	-0.0088501	3.08867	
6.81892	-3.28125	50.2103	4.9826	0.0265503	0.00366211	0.00610352	6.42216	-0.731181	50.0865	0.876514	9.51969	-3.09753	0.00325928	-0.00900879	3.09753	
6.64519	-0.875	50.2528	4.98413	0.0256348	0.00213623	-0.00976563	6.41335	-0.730609	50.0888	0.876553	9.51924	-3.10588	0.00316162	-0.011853	3.10588	
6.47146	-0.40625	50.3485	4.98505	0.0253296	0.000610352	0.00640869	6.40499	-0.730447	50.0911	0.876594	9.51878	-3.11378	0.00305176	-0.00933838	3.11378	
6.51489	-0.21875	48.2328	4.9823	0.0234985	0.00366211	-0.000305176	6.397	-0.730134	50.0931	0.876629	9.51837	-3.12137	0.00313721	-0.00845947	3.12137	
7.42698	-0.1875	50.1465	4.97925	0.0247192	0.00518799	-0.0106812	6.38949	-0.729538	50.0945	0.876654	9.51808	-3.12859	0.00318604	-0.00650635	3.12859	
6.68862	-0.53125	50.4654	4.97345	0.0256348	0.00183105	0.0125122	6.38264	-0.728685	50.0957	0.876675	9.51785	-3.13521	0.003125	-0.00455322	3.13521	
12.9429	-0.78125	49.9445	4.98352	0.0256348	0.00335693	-0.00213623	6.3773	-0.727724	50.0969	0.876696	9.5176	-3.14031	0.00314941	-0.00410156	3.14031	
5.16848	-1.46875	49.8913	4.98169	0.0256348	0.00274658	0.0320435	6.37404	-0.726898	50.0981	0.876716	9.51737	-3.14333	0.00283203	-0.003125	3.14333	
5.25535	-1.59375	50.0295	4.97925	0.0259399	0.0012207	-0.0216675	6.37137	-0.726475	50.0991	0.876734	9.51717	-3.1458	0.002771	-0.00556641	3.1458	
6.55833	-0.53125	49.9551	4.97772	0.0262451	0.00427246	-0.0808716	6.36828	-0.726419	50.1	0.87675	9.51699	-3.1487	0.00285645	-0.00654297	3.1487	
6.51489	-0.90625	49.7212	4.97589	0.0262451	0.00213623	0.012207	6.36522	-0.726468	50.1008	0.876764	9.51683	-3.15161	0.00275879	-0.00401611	3.15161	
6.16743	-0.5625	48.5092	4.97772	0.0241089	0.00274658	0.0613403	6.36231	-0.726515	50.1011	0.87677	9.51676	-3.15446	0.00279541	-0.00258789	3.15446	
6.21086	-0.34375	49.8169	4.97955	0.0259399	0.0012207	-0.00610352	6.35943	-0.726478	50.1009	0.876765	9.51681	-3.15738	0.00273437	-0.000695801	3.15738	
10.3804	-0.625	49.8701	4.97589	0.0283813	0.00335693	0.0143433	6.35721	-0.726283	50.1002	0.876754	9.51694	-3.15973	0.00270996	0.000268555	3.15973	
5.38564	-0.53125	49.9445	4.98047	0.0247192	0.00274658	0.0210571	6.35614	-0.725973	50.0995	0.876741	9.51709	-3.16095	0.00262451	-0.000561523	3.16095	
5.34221	-4.28125	49.8063	4.97772	0.0280762	0.00366211	-0.0134277	6.35527	-0.72615	50.0987	0.876727	9.51726	-3.16198	0.00266113	-0.00350342	3.16198	
7.34011	-0.0625	50.189	4.97284	0.0265503	0.00213623	0.0012207	6.35412	-0.72729	50.0977	0.876711	9.51744	-3.16331	0.00258789	-0.00371094	3.16331	
8.07847	0.125	50.4867	4.96948	0.0253296	0.0012207	-0.0723267	6.35343	-0.728603	50.0969	0.876696	9.51761	-3.16417	0.00252686	-0.00430908	3.16417	
7.64414	0.15625	48.9983	4.97284	0.0241089	0.00457764	-0.0161743	6.35365	-0.729365	50.0961	0.876681	9.51778	-3.16412	0.00264893	-0.00604248	3.16412	
6.55833	-0.6875	49.9551	4.97345	0.0283813	0.00518799	0.0250244	6.35456	-0.729687	50.0949	0.876662	9.518	-3.16343	0.00267334	-0.00461426	3.16343	
7.77444	0.03125	50.0189	4.97253	0.0259399	0	0.00762939	6.35593	-0.729729	50.0936	0.876639	9.51826	-3.16233	0.0026001	-0.00604248	3.16233	
12.9429	-0.5	49.8913	4.97284	0.0241089	0.00457764	0.0704956	6.35874	-0.729491	50.0923	0.876615	9.51853	-3.15979	0.00272217	-0.00203857	3.15979	
6.81892	-2	49.8275	4.97589	0.0256348	0.000305176	-0.0631714	6.36378	-0.729269	50.0909	0.876591	9.51881	-3.15502	0.00270996	-0.00461426	3.15502	
6.55833	-8.65625	50.0402	4.97223	0.0228882	0.00152588	-0.0167847	6.36985	-0.730643	50.0894	0.876565	9.5191	-3.14926	0.00264893	-0.00441895	3.14926	
7.64414	0.03125	50.2528	4.96857	0.0256348	0.00366211	-0.050354	6.37602	-0.734508	50.088	0.87654	9.51939	-3.14337	0.00270996	-0.00373535	3.14337	
7.60071	0.40625	50.1465	4.96613	0.0244141	0.00335693	-0.0598145	6.38259	-0.739052	50.0866	0.876516	9.51966	-3.13707	0.00269775	-0.00637207	3.13707	
6.08057	-1	49.7212	4.97498	0.0247192	0.00366211	0.00640869	6.38946	-0.743002	50.0853	0.876493	9.51993	-3.13046	0.00275879	-0.0057251	3.13046	
5.16848	-1.15625	49.7637	4.97955	0.0280762	-0.0012207	0.0186157	6.396	-0.746781	50.0839	0.876468	9.52021	-3.12421	0.00268555	-0.00523682	3.12421	
8.90369	-1.09375	49.8594	4.97833	0.0265503	0.00457764	0.0924683	6.40226	-0.750647	50.0823	0.876441	9.52052	-3.11826	0.00272217	-0.00152588	3.11826	
5.90684	-1.65625	49.7531	4.9707	0.0250244	0.00152588	0.015564	6.40881	-0.754689	50.0807	0.876411	9.52086	-3.11205	0.00257568	-0.000476074	3.11205	
6.42803	-2.34375	49.8488	4.98047	0.0256348	0.00366211	0.000610352	6.41537	-0.759168	50.0789	0.87638	9.52122	-3.10585	0.00264893	-0.000952148	3.10585	
6.2543	-0.78125	50.0827	4.97833	0.0265503	0.00244141	0.020752	6.4216	-0.764125	50.077	0.876348	9.52159	-3.09999	0.0026123	-3.66211E-005	3.09999	
5.81997	-0.34375	49.987	4.97467	0.0247192	0.000610352	-0.00701904	6.42747	-0.769095	50.0752	0.876316	9.52195	-3.09449	0.00252686	-0.00159912	3.09449	
5.64624	-0.96875	49.8913	4.97833	0.0262451	0.00457764	0.00152588	6.43279	-0.773791	50.0734	0.876284	9.52232	-3.08953	0.00266113	-0.000671387	3.08953	
4.21296	-1.59375	49.6149	4.97955	0.0283813	0.00152588	-0.00366211	6.43725	-0.778445	50.0715	0.87625	9.5227	-3.08545	0.00255127	0.00241699	3.08545	
5.77654	-1.40625	49.5936	4.98108	0.0259399	-0.00579834	-0.0424194	6.44063	-0.783315	50.0694	0.876214	9.52312	-3.08248	0.00223389	0.000231934	3.08248	
-3.34431	-0.71875	50.2528	4.97833	0.0228882	0.00457764	-0.015564	6.44183	-0.788325	50.0672	0.876176	9.52355	-3.08172	0.00230713	-0.00284424	3.08172	
7.25325	-0.78125	50.2315	4.97406	0.0244141	0.00274658	0.0119019	6.43997	-0.793233	50.0651	0.876139	9.52398	-3.084	0.00236816	-0.00212402	3.084	
6.55833	4.78125	50.1039	4.97925	0.0271606	0.00213623	0.00518799	6.43693	-0.79709	50.0631	0.876105	9.52437	-3.08744	0.00231934	-0.00249023	3.08744	
6.60176	0.03125	50.2528	4.98505	0.0271606	0.00427246	-0.00823975	6.43419	-0.798949	50.0613	0.876073	9.52473	-3.09054	0.00238037	-0.00366211	3.09054	
6.34116	-0.21875	49.6787	4.98383	0.0231934	0.00213623	-0.00366211	6.43159	-0.799531	50.0596	0.876042	9.52508	-3.09348	0.00231934	-0.00327148	3.09348	
5.8634	-0.21875	49.5511	4.98169	0.0247192	0.00213623	-0.0393677	6.429	-0.799693	50.0577	0.87601	9.52545	-3.09645	0.00231934	-0.00489502	3.09645	
5.81997	-0.90625	50.2103	4.98322	0.0259399	0.000305176	0.0161743	6.42622	-0.799595	50.0557	0.875975	9.52584	-3.09963	0.00228271	-0.00135498	3.09963	
5.51594	-0.28125	50.1146	4.98566	0.0250244	0.00274658	-0.0088501	6.42311	-0.799364	50.0538	0.875942	9.52623	-3.10312	0.00220947	-0.00106201	3.10312	
1.95447	0.40625	50.1677	4.96887	0.0234985	0.00274658	-0.0662231	6.41905	-0.798809	50.052	0.87591	9.52659	-3.10754	0.00211182	-0.00471191	3.10754	
7.20981	2.8125	50.3166	4.98413	0.0241089	0.00396729	0.0683594	6.41372	-0.797259	50.0504	0.875881	9.52692	-3.11319	0.00227051	-0.00228271	3.11319	
5.51594	-1.34375	50.1039	4.98688	0.0283813	0.00213623	0.0354004	6.408	-0.794541	50.0489	0.875855	9.52722	-3.11921	0.00217285	-0.00368652	3.11921	
3.9958	-1.71875	49.6787	4.9942	0.0265503	0.00152588	0.00427246	6.40195	-0.791673	50.0474	0.87583	9.5275	-3.12555	0.00222168	-0.00098877	3.12555	
5.55938	-1.09375	49.9976	4.99451	0.0247192	0.00427246	0.00427246	6.3951	-0.789325	50.046	0.875804	9.5278	-3.1327	0.00233154	-0.000146484	3.1327	
5.90684	-0.65625	49.8594	4.99268	0.0241089	0.00213623	0.0109863	6.38778	-0.787276	50.0444	0.875777	9.52811	-3.14033	0.00227051	0.00230713	3.14033	
6.16743	-0.59375	49.9232	4.99084	0.0256348	0.00152588	-0.0665283	6.3804	-0.785276	50.0428	0.87575	9.52842	-3.14802	0.00219727	0.00203857	3.14802	
-0.434326	-1.15625	50.2315	4.9939	0.0250244	0.00457764	0.00976563	6.37208	-0.783325	50.0413	0.875722	9.52873	-3.15665	0.00223389	0.00217285	3.15665	
5.68967	-1.03125	50.1252	4.99054	0.0250244	0.00457764	0.0442505	6.36181	-0.781566	50.0398	0.875697	9.52902	-3.16722	0.00246582	0.00319824	3.16722	
4.73416	3.40625	50.0508	4.9942	0.0296021	0.00213623	0.0540161	6.35037	-0.779354	50.0385	0.875674	9.52929	-3.17892	0.00236816	0.00166016	3.17892	
4.82102	-1.1875	49.8913	4.99512	0.0259399	0.00488281	0.0518799	6.3385	-0.776023	50.0372	0.875651	9.52955	-3.19105	0.00250244	0.00311279	3.19105	
4.56042	-1.8125	49.7212	4.99481	0.0265503	0.00366211	0.0473022	6.32604	-0.772448	50.0359	0.875627	9.52982	-3.20378	0.00250244	0.00498047	3.20378	
6.08057	-0.59375	52.3153	4.99146	0.0241089	0.00152588	-0.0436401	6.3132	-0.769358	50.0348	0.875609	9.53003	-3.21683	0.00246582	0.00240479	3.21683	
7.90474	0.125	50.2103	4.9881	0.0247192	0.00701904	-0.0326538	6.30072	-0.766344	50.0345	0.875603	9.5301	-3.22938	0.00272217	0.00137939	3.22938	
6.124	-0.59375	50.2953	4.99084	0.0265503	0.00335693	-0.06073	6.2891	-0.763105	50.0346	0.875605	9.53008	-3.24098	0.00267334	-0.00111084	3.24098	
6.08057	-0.71875	50.3485	4.98627	0.0222778	0.00396729	-0.0509644	6.27806	-0.759782	50.0348	0.87561	9.53002	-3.25197	0.002771	-0.00300293	3.25197	
6.51489	1.78125	50.1039	4.99298	0.0247192	0.00457764	0.0332642	6.26735	-0.756142	50.0353	0.875617	9.52994	-3.26259	0.00318604	2.44141E-005	3.26259	
6.16743	-0.46875	50.1252	4.9942	0.0265503	0.00244141	0.0283813	6.25705	-0.751791	50.0357	0.875625	9.52984	-3.27279	0.00310059	0.00178223	3.27279	
5.95027	-0.59375	50.0402	4.99054	0.0247192	0.00274658	0.0430298	6.24707	-0.747088	50.0362	0.875634	9.52974	-3.28267	0.00310059	0.00302734	3.28267	
6.21086	-0.625	51.2309	4.9942	0.0247192	0.00396729	0.0222778	6.23734	-0.742439	50.0369	0.875646	9.5296	-3.29227	0.00317383	0.00371094	3.29227	
6.99265	-0.53125	50.4654	4.98688	0.0250244	0.00274658	0.0140381	6.228	-0.737859	50.038	0.875666	9.52938	-3.30138	0.00311279	0.00460205	3.30138	
7.60071	0.09375	50.5717	4.98444	0.0259399	0.00518799	-0.0393677	6.21944	-0.73323	50.0395	0.875691	9.52909	-3.30965	0.00323486	0.00317383	3.30965	
4.69072	-0.84375	49.9551	4.98932	0.0262451	0.00396729	0.0588989	6.21149	-0.728491	50.0411	0.87572	9.52877	-3.31727	0.00330811	0.00710449	3.31727	
4.51699	-1.46875	50.0189	4.99634	0.0259399	0.00396729	0.00396729	6.2033	-0.72394	50.0428	0.875748	9.52844	-3.32514	0.00345459	0.00661621	3.32514	
5.16848	2.15625	50.0189	4.99451	0.0241089	0.00152588	-0.0314331	6.19448	-0.719352	50.0443	0.875775	9.52813	-3.33365	0.00340576	0.00571289	3.33365	
5.29878	-1	50.1039	4.99237	0.0262451	0.00427246	-0.0125122	6.18525	-0.714191	50.0458	0.875801	9.52783	-3.34259	0.0034668	0.00786133	3.34259	
6.38459	-1.125	50.2103	4.99329	0.0259399	0.00213623	-0.0701904	6.17593	-0.708917	50.0473	0.875827	9.52754	-3.3516	0.00339355	0.00231934	3.3516	
5.47251	-1	52.3259	4.98932	0.0241089	0.00152588	-0.107727	6.16677	-0.704047	50.0491	0.875859	9.52717	-3.36041	0.00336914	-0.00340576	3.36041	
6.64519	-0.34375	50.0614	4.99176	0.0265503	0.00640869	-0.0314331	6.15781	-0.699449	50.0516	0.875903	9.52667	-3.36886	0.00356445	-0.00483398	3.36886	
3.56147	-1.59375	50.0933	4.99084	0.0280762	0.00396729	0.0662231	6.14881	-0.695086	50.0544	0.875952	9.52612	-3.3773	0.00355225	-0.00235596	3.3773	
-1.47671	-2.28125	49.7744	4.9939	0.0253296	0.0012207	0.0201416	6.13822	-0.691346	50.057	0.875998	9.52559	-3.38737	0.00351563	-0.00198975	3.38737	
5.64624	-0.8125	49.7637	4.99298	0.0262451	0.00366211	0.0595093	6.12516	-0.688388	50.0595	0.876041	9.5251	-3.39994	0.00360107	0.00305176	3.39994	
7.07952	-0.59375	50.1039	4.98688	0.0250244	0.00152588	-0.0228882	6.11137	-0.685805	50.0617	0.876079	9.52465	-3.41329	0.003479	0.00174561	3.41329	
7.42698	0.15625	50.3697	4.98016	0.0231934	0.00244141	0.0692749	6.09849	-0.683172	50.0638	0.876117	9.52422	-3.42573	0.00339355	0.00274658	3.42573	
7.03608	-0.40625	50.9438	4.98444	0.0247192	0.00366211	0.0335693	6.08678	-0.680315	50.0662	0.876158	9.52376	-3.43698	0.00345459	0.00192871	3.43698	
6.42803	-0.3125	50.274	4.9826	0.0256348	0.00213623	0.0485229	6.07603	-0.677285	50.0687	0.876203	9.52324	-3.44721	0.00334473	0.00179443	3.44721	
5.47251	-0.46875	50.189	4.98657	0.0259399	0.00457764	0.00152588	6.06582	-0.674173	50.0715	0.876251	9.5227	-3.45688	0.00338135	-3.66211E-005	3.45688	
5.8634	-0.78125	50.1571	4.98322	0.0247192	0.00305176	-0.0296021	6.05581	-0.671067	50.0742	0.876298	9.52216	-3.46635	0.00344238	0.000524902	3.46635	
6.64519	-0.1875	49.9338	4.98383	0.0262451	0.00274658	-0.0445557	6.04609	-0.667997	50.0768	0.876344	9.52163	-3.47554	0.00327148	4.88281E-005	3.47554	
6.64519	2.34375	50.3804	4.9823	0.0234985	0.00152588	-0.0180054	6.03696	-0.664435	50.0793	0.876389	9.52112	-3.48416	0.00319824	0.00175781	3.48416	
7.73101	0.28125	50.2315	4.97772	0.0250244	0.00518799	-0.00366211	6.02869	-0.659844	50.0819	0.876433	9.52061	-3.49192	0.00324707	0.0036499	3.49192	
7.20981	0.53125	50.5292	4.97711	0.0250244	0.00335693	0.0305176	6.02152	-0.65447	50.0845	0.876479	9.52008	-3.49856	0.00319824	0.00354004	3.49856	
5.55938	-0.625	49.3066	4.98383	0.0271606	0.0012207	0.0491333	6.01516	-0.648766	50.0871	0.876524	9.51957	-3.5044	0.00314941	0.00437012	3.5044	
5.51594	-1.21875	49.8701	4.98566	0.0280762	0.00518799	-0.00335693	6.00899	-0.643159	50.0894	0.876564	9.51911	-3.51012	0.00324707	0.00251465	3.51012	
4.77759	-1.21875	49.9551	4.97955	0.0265503	0.00244141	-0.00701904	6.00263	-0.638013	50.0914	0.876599	9.51871	-3.51608	0.00318604	0.00134277	3.51608	
15.5489	-0.96875	49.9338	4.9762	0.0253296	0.00213623	0.0289917	5.99751	-0.633369	50.0932	0.876631	9.51835	-3.52084	0.00316162	0.00194092	3.52084	
6.34116	-0.71875	50.0402	4.97772	0.0247192	0.00335693	0.00701904	5.99539	-0.629095	50.0949	0.876661	9.51801	-3.52262	0.00308838	0.00379639	3.52262	
6.2543	-0.96875	50.0189	4.97711	0.0280762	0.00305176	-0.00610352	5.99498	-0.625103	50.0965	0.876688	9.5177	-3.52271	0.00305176	0.00119629	3.52271	
5.77654	-1.21875	50.1784	4.9823	0.0262451	0.00213623	0.0222778	5.99469	-0.621464	50.0979	0.876714	9.5174	-3.52271	0.00297852	0.00192871	3.52271	
6.08057	-0.84375	49.6149	4.98016	0.0256348	0.00457764	0.0332642	5.99439	-0.618226	50.0993	0.876738	9.51712	-3.52273	0.00310059	0.0045166	3.52273	
5.12505	-0.71875	48.1903	4.98108	0.0271606	0.00366211	-0.0390625	5.99396	-0.61528	50.1002	0.876754	9.51694	-3.52298	0.00307617	0.00345459	3.52298	
4.51699	-1.78125	49.9551	4.97803	0.0253296	0.00701904	0.0152588	5.99306	-0.612685	50.1004	0.876757	9.51691	-3.52385	0.00327148	0.00687256	3.52385	
11.6834	-0.125	50.2315	4.97284	0.0250244	0.00427246	0.0140381	5.99248	-0.610484	50.1002	0.876754	9.51694	-3.52446	0.00338135	0.0117432	3.52446	
7.55728	0.71875	50.1252	4.96704	0.0244141	0.00274658	0.00488281	5.9937	-0.608184	50.1001	0.876752	9.51697	-3.52327	0.00323486	0.0131958	3.52327	
7.16638	-5.375	50.0402	4.9707	0.0247192	0.00152588	-0.0119019	5.99643	-0.606218	50.1	0.87675	9.51699	-3.52056	0.00313721	0.0100708	3.52056	
7.29668	-0.1875	50.274	4.97253	0.0262451	0.00427246	0.0158691	5.99987	-0.60553	50.0999	0.876749	9.517	-3.51714	0.00325928	0.0098999	3.51714	
6.47146	-0.46875	49.9551	4.97375	0.0280762	0.00152588	0.0582886	6.00384	-0.605455	50.0999	0.876748	9.51702	-3.51317	0.00317383	0.00985107	3.51317	
6.90579	-1.09375	49.785	4.97101	0.0244141	0.00152588	-0.015564	6.00817	-0.605351	50.0997	0.876745	9.51704	-3.50887	0.00317383	0.010144	3.50887	
6.60176	-0.34375	50.1465	4.97437	0.0253296	0.00640869	0.0836182	6.01278	-0.60534	50.0995	0.876741	9.51709	-3.50431	0.00333252	0.0107178	3.50431	
7.73101	-0.34375	49.9338	4.97223	0.0241089	0.00274658	-0.0228882	6.01782	-0.605284	50.0992	0.876736	9.51715	-3.49932	0.0032959	0.00845947	3.49932	
19.3275	0.21875	50.189	4.97284	0.0250244	0.0012207	-0.0891113	6.02537	-0.60498	50.0989	0.876731	9.51721	-3.49183	0.00325928	0.0029541	3.49183	
7.42698	-1.59375	50.3804	4.96948	0.0241089	0.00396729	-0.06073	6.03727	-0.604544	50.0987	0.876726	9.51726	-3.47998	0.00323486	0.000463867	3.47998	
6.29773	-8.875	49.6787	4.97437	0.0296021	0.00335693	0.0289917	6.05129	-0.605585	50.0985	0.876723	9.5173	-3.46601	0.00324707	0.00280762	3.46601	
4.86445	-1.21875	49.8594	4.97894	0.0271606	0.00183105	-0.0595093	6.06492	-0.609405	50.0981	0.876717	9.51736	-3.45244	0.00321045	0.00220947	3.45244	
6.08057	-0.71875	49.6999	4.97955	0.0259399	0.00396729	-0.0524902	6.07774	-0.61458	50.0976	0.876708	9.51746	-3.43972	0.00330811	0.000830078	3.43972	
5.34221	-1.125	49.9764	4.97742	0.0247192	0.00396729	0.00457764	6.08982	-0.619779	50.0969	0.876697	9.5176	-3.42778	0.00325928	0.00115967	3.42778	
5.9937	-1	50.0402	4.97284	0.0265503	-0.00396729	-0.0454712	6.10122	-0.625027	50.0962	0.876683	9.51775	-3.41653	0.00296631	-0.00187988	3.41653	
9.72891	-0.46875	50.0614	4.97437	0.0274658	0.00488281	0.062561	6.11264	-0.630262	50.0954	0.87667	9.5179	-3.40527	0.00311279	-0.00134277	3.40527	
5.47251	-1.46875	50.1252	4.97833	0.0231934	0.00274658	0.0143433	6.12466	-0.635452	50.0947	0.876657	9.51806	-3.3934	0.00301514	-0.000634766	3.3934	
5.90684	-4.40625	49.7425	4.97284	0.0253296	0.00152588	-0.0250244	6.13658	-0.641278	50.0939	0.876643	9.51821	-3.38163	0.00297852	-0.00135498	3.38163	
5.29878	-1.21875	49.7637	4.97986	0.0274658	0.00549316	-0.00518799	6.14779	-0.648287	50.093	0.876627	9.5184	-3.37061	0.00311279	-0.00272217	3.37061	
5.42908	-1.4375	49.8063	4.97742	0.0271606	0.00396729	0.0283813	6.15819	-0.655934	50.0919	0.876608	9.51861	-3.36042	0.00313721	-0.00186768	3.36042	
6.68862	-0.125	48.6581	4.97345	0.022583	0.00274658	-0.00396729	6.16795	-0.663561	50.0905	0.876583	9.51889	-3.35094	0.003125	-0.00178223	3.35094	
7.42698	0.875	50.1465	4.97345	0.0241089	0.00305176	-0.0378418	6.17761	-0.670635	50.0886	0.876551	9.51926	-3.34165	0.00316162	-0.00418701	3.34165	
7.64414	-0.28125	50.2953	4.97223	0.0265503	-0.00457764	0.00579834	6.18763	-0.676839	50.0867	0.876517	9.51965	-3.33202	0.00279541	-0.00528564	3.33202	
8.55623	-0.71875	50.0508	4.97589	0.0271606	0.00213623	0.00701904	6.19831	-0.682468	50.0849	0.876486	9.52001	-3.3217	0.00273437	-0.00344238	3.3217	
6.51489	-1.03125	49.9445	4.97925	0.0244141	0.00396729	0.0689697	6.20962	-0.687904	50.0832	0.876455	9.52036	-3.31074	0.0026123	-0.00129395	3.31074	
6.2543	4.625	50.1784	4.97833	0.0238037	0.00366211	0.015564	6.22101	-0.692437	50.0814	0.876425	9.5207	-3.29969	0.00258789	-0.00123291	3.29969	
6.42803	-0.34375	50.1465	4.97559	0.0256348	0.0012207	-0.00213623	6.23208	-0.69516	50.0798	0.876396	9.52103	-3.28895	0.00252686	-0.00151367	3.28895	
6.73206	-0.125	49.8913	4.98138	0.0228882	0.00335693	-0.0204468	6.24291	-0.696766	50.0782	0.876369	9.52134	-3.27843	0.0026001	-0.00185547	3.27843	
6.47146	-0.09375	49.9338	4.97589	0.0238037	0.00335693	-0.0552368	6.25358	-0.697989	50.0766	0.876341	9.52166	-3.26809	0.00256348	-0.00469971	3.26809	
7.03608	0.78125	50.3166	4.97345	0.0265503	-0.00213623	-0.0192261	6.26413	-0.698664	50.0751	0.876314	9.52198	-3.25784	0.00241699	-0.00780029	3.25784	
4.51699	-1.09375	49.9232	4.98413	0.0265503	0.00488281	0.0210571	6.27432	-0.698824	50.0736	0.876288	9.52227	-3.24795	0.00255127	-0.00633545	3.24795	
-0.651489	-1.84375	49.8701	4.97375	0.0265503	0.00274658	-0.06073	6.28266	-0.699048	50.0721	0.876262	9.52257	-3.23991	0.00240479	-0.0121094	3.23991	
5.08162	-1.78125	50.0614	4.9823	0.0247192	0.00213623	-0.0186157	6.28809	-0.699849	50.0706	0.876236	9.52287	-3.23478	0.00238037	-0.0119385	3.23478	
5.73311	-0.71875	50.0402	4.99054	0.0253296	0.00335693	0.00213623	6.29179	-0.701138	50.0691	0.876209	9.52317	-3.23138	0.00246582	-0.00828857	3.23138	
5.81997	-0.9375	49.8275	4.98657	0.0247192	0.00396729	0.0289917	6.29493	-0.702592	50.0676	0.876183	9.52347	-3.22854	0.00246582	-0.00469971	3.22854	
5.73311	-0.71875	49.2003	4.98657	0.0222778	0.00305176	0.0100708	6.29763	-0.704073	50.066	0.876154	9.5238	-3.22616	0.00245361	-0.00545654	3.22616	
5.8634	-0.78125	50.1039	4.98474	0.0247192	0.00396729	0.0109863	6.29993	-0.705555	50.0641	0.876121	9.52418	-3.22425	0.00253906	-0.00263672	3.22425	
5.73311	-1.125	50.0083	4.98596	0.0286865	0.00579834	0.0216675	6.30183	-0.707076	50.0621	0.876087	9.52457	-3.22273	0.0026123	0.00032959	3.22273	
4.38669	-1.78125	49.7637	4.98749	0.0265503	0.00335693	-0.00457764	6.30313	-0.708851	50.0602	0.876053	9.52496	-3.22183	0.00258789	-3.66211E-005	3.22183	
4.95132	-1.34375	49.6149	4.9942	0.0265503	0.00396729	-0.0292969	6.30349	-0.71106	50.0581	0.876017	9.52537	-3.22188	0.00290527	0.000610352	3.22188	
6.73206	4.6875	49.9764	4.98688	0.0253296	0.00366211	0.0546265	6.30318	-0.712717	50.0559	0.875979	9.5258	-3.22262	0.00285645	0.000292969	3.22262	
7.25325	0.03125	50.189	4.98077	0.0253296	0.00152588	-0.0314331	6.30296	-0.712623	50.0538	0.875941	9.52623	-3.22327	0.00280762	-0.00153809	3.22327	
7.03608	-0.46875	50.0083	4.98749	0.0241089	0.00518799	0.0576782	6.30322	-0.711426	50.0517	0.875905	9.52665	-3.22343	0.0029541	0.00177002	3.22343	
7.55728	-0.59375	51.8688	4.9884	0.0265503	0.00274658	0.0161743	6.30404	-0.710061	50.05	0.875875	9.52699	-3.22295	0.00284424	0.00262451	3.22295	
7.03608	-1.28125	50.2422	4.9881	0.0241089	0	0.0222778	6.30545	-0.70876	50.0489	0.875857	9.5272	-3.22175	0.00268555	0.00238037	3.22175	
5.81997	-0.78125	49.9338	4.98932	0.0259399	0.00396729	-0.00549316	6.30715	-0.707675	50.0482	0.875844	9.52734	-3.22019	0.00273437	0.00231934	3.22019	
5.64624	-0.78125	50.2953	4.98871	0.0256348	0.00274658	-0.0109863	6.30866	-0.706751	50.0476	0.875833	9.52747	-3.21881	0.00272217	0.00339355	3.21881	
5.95027	-0.34375	50.274	4.98718	0.0222778	0.00152588	-0.131836	6.30977	-0.705838	50.0471	0.875824	9.52757	-3.2178	0.00296631	-0.00211182	3.2178	
6.55833	-0.28125	50.3697	4.99054	0.0274658	0.00488281	-0.022583	6.31067	-0.70479	50.0467	0.875818	9.52764	-3.21697	0.00307617	-0.0032959	3.21697	
7.12295	0.15625	50.2103	4.98505	0.0256348	0.00274658	0.0265503	6.31168	-0.703457	50.0466	0.875815	9.52768	-3.21599	0.00302734	-0.00499268	3.21599	
4.73416	-0.9375	51.082	4.99023	0.0253296	0.00183105	0.0283813	6.31271	-0.701875	50.0467	0.875816	9.52766	-3.21495	0.0029541	-0.00447998	3.21495	
4.95132	-2.15625	49.8488	4.99756	0.0265503	0.00396729	0.00610352	6.31312	-0.700514	50.0471	0.875823	9.52758	-3.21446	0.00306396	-0.00415039	3.21446	
5.81997	-1.09375	50.0402	4.99542	0.0259399	0.00762939	-0.0183105	6.31278	-0.699751	50.0475	0.875832	9.52748	-3.2147	0.00323486	-0.00406494	3.2147	
-2.99685	-2.09375	50.0827	4.99146	0.0241089	0.00152588	-0.0863647	6.31064	-0.699578	50.048	0.87584	9.52739	-3.21676	0.00316162	-0.00531006	3.21676	
6.03713	-1.34375	50.1252	4.99298	0.0241089	0.00457764	0.0338745	6.30556	-0.700005	50.0484	0.875848	9.5273	-3.22174	0.00343018	-0.00318604	3.22174	
6.124	2.6875	50.0614	4.99542	0.0253296	0.00305176	0.0259399	6.29911	-0.700307	50.0489	0.875856	9.52721	-3.2281	0.00335693	-0.00299072	3.2281	
6.124	-1.125	50.1571	4.98932	0.0259399	0.00213623	0.0186157	6.29277	-0.699714	50.0494	0.875864	9.52711	-3.23435	0.00333252	0.000183105	3.23435	
5.77654	-0.96875	50.2528	4.99634	0.027771	0.00518799	0.0210571	6.28648	-0.698789	50.0499	0.875874	9.52701	-3.24053	0.00345459	0.00177002	3.24053	
5.8634	-1.5625	51.805	4.99573	0.0271606	0.00335693	0.0509644	6.28017	-0.698181	50.0508	0.875889	9.52683	-3.24667	0.00345459	0.00372314	3.24667	
5.38564	-1.90625	49.785	4.9942	0.0253296	-0.000305176	0.0332642	6.27373	-0.698091	50.0522	0.875913	9.52656	-3.25283	0.00328369	0.00389404	3.25283	
4.29983	-0.28125	50.0614	4.99054	0.0253296	0.00396729	0.0247192	6.26687	-0.698449	50.0537	0.875939	9.52626	-3.25939	0.00332031	0.00447998	3.25939	
3.69177	-0.1875	50.4441	4.99542	0.0256348	0.00274658	-0.00854492	6.2591	-0.698773	50.0552	0.875965	9.52596	-3.26686	0.00327148	0.00369873	3.26686	
6.68862	1.71875	50.3804	4.98627	0.0250244	0.00213623	-0.039978	6.25057	-0.698487	50.0568	0.875993	9.52564	-3.27507	0.003125	0.00123291	3.27507	
6.90579	-1.0625	50.3591	4.99054	0.0283813	0.00396729	0.020752	6.24218	-0.697439	50.0585	0.876024	9.52529	-3.28311	0.00314941	0.00224609	3.28311	
6.94922	-1.09375	50.2953	4.99054	0.0259399	0.00396729	0.0134277	6.23446	-0.696226	50.0604	0.876057	9.52491	-3.29045	0.00314941	0.00395508	3.29045	
5.90684	-0.40625	50.6355	4.99054	0.0256348	0.0012207	0.0253296	6.22729	-0.695192	50.0624	0.876092	9.52451	-3.29722	0.00305176	0.0027832	3.29722	
7.29668	-1.0625	50.1039	4.99084	0.0247192	0.00213623	0.0222778	6.22055	-0.694222	50.0646	0.87613	9.52408	-3.30352	0.00307617	0.00493164	3.30352	
6.2543	-0.6875	50.3591	4.99023	0.0265503	0.00579834	0.00640869	6.21434	-0.693355	50.0668	0.876169	9.52363	-3.30929	0.00310059	0.00288086	3.30929	
2.04133	-0.4375	50.4123	4.98108	0.0253296	0.00396729	-0.022583	6.20788	-0.692535	50.0691	0.876209	9.52317	-3.31529	0.00314941	0.00133057	3.31529	
8.3825	0.15625	50.4441	4.98199	0.0216675	0.00213623	-0.093689	6.20069	-0.691531	50.0715	0.876252	9.52268	-3.32199	0.00323486	-0.00330811	3.32199	
5.34221	0.34375	50.1039	4.98901	0.0256348	0.00213623	-0.0585938	6.19365	-0.690099	50.0741	0.876296	9.52218	-3.32853	0.00316162	-0.00543213	3.32853	
5.55938	-1.78125	50.0295	4.99084	0.0265503	0.00213623	-0.00305176	6.18684	-0.688434	50.0766	0.87634	9.52168	-3.33484	0.00313721	-0.00511475	3.33484	
5.34221	-1.03125	50.2634	4.98688	0.0271606	0.00366211	-0.0314331	6.1798	-0.68706	50.079	0.876382	9.52119	-3.34139	0.00322266	-0.00109863	3.34139	
6.34116	-0.78125	48.977	4.98749	0.0244141	0.0012207	0.0500488	6.17268	-0.686025	50.0812	0.876421	9.52075	-3.34806	0.00307617	0.00180664	3.34806	
5.73311	-0.90625	50.1252	4.9942	0.0247192	0.00213623	0.000915527	6.16567	-0.685143	50.083	0.876453	9.52038	-3.35471	0.00305176	0.00078125	3.35471	
6.34116	-0.625	50.0614	4.9826	0.0253296	0.00152588	-0.0476074	6.15882	-0.684366	50.0847	0.876482	9.52006	-3.36124	0.00303955	-0.0022583	3.36124	
14.159	-0.21875	50.0614	4.98047	0.0262451	0.00152588	0.0244141	6.15344	-0.68356	50.0862	0.876509	9.51975	-3.36631	0.00294189	-0.00152588	3.36631	
5.12505	-0.5	49.9551	4.98413	0.0244141	0.00274658	-0.00549316	6.1506	-0.682601	50.0877	0.876534	9.51945	-3.36885	0.00274658	-0.00101318	3.36885	
5.68967	-2.15625	49.8913	4.98657	0.0256348	0.00152588	-0.0183105	6.14872	-0.681774	50.089	0.876558	9.51919	-3.37047	0.00274658	0.00170898	3.37047	
5.21191	-0.5625	49.9764	4.9942	0.0247192	0.00457764	0.0534058	6.14645	-0.681388	50.0902	0.876579	9.51895	-3.3725	0.00274658	0.00249023	3.3725	
7.29668	-0.125	49.8701	4.97498	0.022583	0.00335693	-0.0192261	6.14408	-0.681121	50.0913	0.876597	9.51874	-3.37466	0.00275879	0.000683594	3.37466	
8.2522	-0.40625	47.765	4.97223	0.0234985	0.00366211	-0.0454712	6.14233	-0.680629	50.0918	0.876607	9.51863	-3.37629	0.00281982	-0.00187988	3.37629	
6.51489	-0.375	50.2953	4.97681	0.0274658	0.00610352	-0.0531006	6.14154	-0.679936	50.0916	0.876604	9.51866	-3.37712	0.00285645	-0.00484619	3.37712	
11.5531	-0.84375	50.3591	4.97345	0.0271606	0.00244141	0.0186157	6.14206	-0.679156	50.0912	0.876596	9.51875	-3.37669	0.00281982	-0.00614014	3.37669	
5.34221	-0.46875	50.1358	4.99054	0.0265503	0.00701904	-0.00457764	6.14417	-0.678373	50.0909	0.876591	9.51881	-3.37464	0.00311279	-0.00765381	3.37464	
6.21086	-0.625	50.1252	4.97498	0.0234985	0.00152588	-0.0296021	6.14681	-0.677571	50.0907	0.876587	9.51885	-3.37204	0.00301514	-0.00982666	3.37204	
6.60176	-0.34375	50.0933	4.97711	0.0244141	0.00488281	-0.00579834	6.14932	-0.676696	50.0905	0.876584	9.51889	-3.36957	0.00310059	-0.0097168	3.36957	
6.99265	-0.875	50.2953	4.97406	0.0244141	0.00152588	-0.0238037	6.15202	-0.675771	50.0903	0.876581	9.51892	-3.3669	0.00307617	-0.00906982	3.3669	
7.47041	-0.28125	49.3066	4.97223	0.0219727	0.00213623	-0.0332642	6.15517	-0.674828	50.0901	0.876578	9.51896	-3.36379	0.00300293	-0.0112305	3.36379	
6.47146	-0.4375	50.5717	4.98901	0.0241089	0.00335693	-0.039978	6.15879	-0.673789	50.0898	0.876572	9.51903	-3.36024	0.00297852	-0.0133667	3.36024	
6.94922	-1.0625	50.0933	4.97284	0.0262451	0.00366211	0.0393677	6.16271	-0.672713	50.0895	0.876567	9.51909	-3.35638	0.00307617	-0.0128052	3.35638	
15.6357	-1.4375	49.8169	4.97742	0.0271606	0	0.00915527	6.16825	-0.671878	50.0893	0.876562	9.51913	-3.35088	0.00299072	-0.0133301	3.35088	
5.90684	-2.4375	49.9338	4.97742	0.0259399	0.00335693	0.027771	6.17662	-0.671643	50.0889	0.876556	9.5192	-3.34258	0.00289307	-0.0124756	3.34258	
5.8634	-9.34375	49.9232	4.97589	0.0250244	0.00152588	-0.00305176	6.18603	-0.67343	50.0885	0.876548	9.51929	-3.33326	0.00279541	-0.0116943	3.33326	
3.30088	-0.46875	49.9338	4.97375	0.0234985	0.00274658	0.0167847	6.19453	-0.678086	50.0879	0.876539	9.5194	-3.32488	0.00281982	-0.00727539	3.32488	
5.47251	-1.125	50.1996	4.97437	0.0253296	0	-0.0872803	6.20166	-0.683928	50.0874	0.876529	9.51952	-3.31786	0.00273437	-0.00842285	3.31786	
6.34116	-0.34375	51.3372	4.97528	0.0231934	0.00274658	-0.0350952	6.20789	-0.689617	50.087	0.876523	9.51959	-3.3117	0.00275879	-0.00970459	3.3117	
5.47251	-0.65625	49.9126	4.97589	0.0256348	-0.00274658	0.0112915	6.21372	-0.695063	50.0871	0.876523	9.51958	-3.30586	0.00250244	-0.00799561	3.30586	
7.64414	-1.53125	49.9126	4.98047	0.0265503	0.00152588	0.121765	6.21935	-0.700381	50.0872	0.876526	9.51955	-3.3002	0.00251465	-0.00512695	3.3002	
4.47356	-1.0625	49.7425	4.99237	0.0259399	0.00366211	0.057373	6.22484	-0.705821	50.0872	0.876526	9.51954	-3.2947	0.00257568	-0.00286865	3.2947	
7.20981	-2.9375	50.2634	4.97223	0.0241089	0.00305176	-0.0180054	6.22997	-0.711656	50.0871	0.876525	9.51956	-3.28959	0.00263672	-0.00168457	3.28959	
8.03503	0.21875	50.1252	4.96735	0.0274658	0.00335693	-0.0378418	6.23524	-0.717888	50.087	0.876523	9.51958	-3.28434	0.00270996	-0.0041748	3.28434	
6.55833	0.15625	50.1252	4.9707	0.0250244	0.00396729	-0.0363159	6.24108	-0.72382	50.087	0.876523	9.51959	-3.27851	0.00275879	-0.00540771	3.27851	
6.55833	-0.1875	49.583	4.97437	0.0253296	0.00396729	-0.0457764	6.24714	-0.729042	50.0869	0.876521	9.51961	-3.27247	0.00285645	-0.00650635	3.27247	
6.55833	-0.34375	49.9764	4.9826	0.0265503	0.00396729	-0.00946045	6.25318	-0.733717	50.0867	0.876517	9.51966	-3.26648	0.00283203	-0.009021	3.26648	
6.90579	-0.21875	49.9764	4.97498	0.0265503	-0.00518799	0.0558472	6.25925	-0.737944	50.0863	0.87651	9.51973	-3.26048	0.00249023	-0.00601807	3.26048	
6.2543	-1.1875	50.1465	4.97742	0.0247192	0.0012207	-0.00823975	6.26536	-0.74187	50.0859	0.876503	9.51981	-3.25445	0.00239258	-0.00452881	3.25445	
7.07952	-0.8125	50.2103	4.97711	0.0222778	0.00396729	0.0100708	6.27148	-0.745727	50.0855	0.876496	9.51989	-3.24841	0.00230713	-0.00200195	3.24841	
7.38354	6.40625	50.0402	4.97223	0.0231934	0.00335693	-0.06073	6.27781	-0.748428	50.0852	0.876491	9.51995	-3.24215	0.00234375	-0.00517578	3.24215	
6.68862	0.375	50.3166	4.9707	0.0262451	0.00366211	0.0198364	6.28444	-0.748652	50.0849	0.876486	9.52001	-3.23556	0.00220947	-0.00419922	3.23556	
5.25535	-0.6875	49.4767	4.97437	0.0271606	0.0012207	0.0219727	6.29098	-0.747399	50.0846	0.876481	9.52006	-3.22908	0.00219727	-0.00213623	3.22908	
4.43013	-1.21875	50.9332	4.98413	0.0265503	0.00396729	0.0259399	6.29674	-0.74607	50.0843	0.876476	9.52012	-3.22338	0.00216064	-0.000866699	3.22338	
5.8634	-0.59375	49.9764	4.98535	0.0250244	-0.000305176	-0.00701904	6.3015	-0.744902	50.0842	0.876474	9.52015	-3.21865	0.0020874	-0.000195313	3.21865	
4.43013	-0.59375	50.0189	4.98322	0.0256348	0.00366211	-0.0442505	6.30537	-0.743777	50.0842	0.876473	9.52016	-3.21479	0.00214844	-0.000634766	3.21479	
0.130298	-1.0625	49.8488	4.97345	0.0265503	0.00366211	0.038147	6.30749	-0.742672	50.084	0.876471	9.52018	-3.21268	0.00216064	0.00249023	3.21268	
5.9937	-0.59375	49.9551	4.97803	0.0253296	0.00213623	0.00946045	6.30729	-0.741658	50.0838	0.876467	9.52022	-3.21293	0.00209961	0.00129395	3.21293	
6.16743	-0.96875	50.0827	4.98566	0.0244141	0.00305176	-0.0765991	6.30602	-0.740718	50.0836	0.876462	9.52028	-3.21426	0.00222168	-0.00213623	3.21426	
4.82102	-1.09375	49.785	4.98199	0.0271606	0.00305176	-0.0314331	6.30447	-0.739915	50.0832	0.876456	9.52035	-3.21588	0.00220947	-0.00450439	3.21588	
5.12505	-1.09375	50.1252	4.98932	0.0250244	0.00427246	0.0332642	6.3023	-0.739339	50.0828	0.876449	9.52043	-3.21812	0.00231934	-0.00305176	3.21812	
5.47251	-1.78125	49.8807	4.98688	0.0247192	0.00274658	0.0363159	6.29949	-0.73911	50.0823	0.876441	9.52052	-3.22103	0.00231934	-0.00227051	3.22103	
6.86235	-0.09375	50.1784	4.98169	0.0271606	0.0088501	-0.0222778	6.29643	-0.739168	50.0819	0.876432	9.52062	-3.22419	0.00267334	0.00032959	3.22419	
5.47251	0.09375	50.2315	4.97894	0.0256348	0.00610352	0.0888062	6.29339	-0.739055	50.0814	0.876425	9.52071	-3.22731	0.00280762	0.00528564	3.22731	
6.08057	-0.375	50.0508	4.98169	0.0241089	0.0012207	0.0210571	6.29026	-0.738532	50.081	0.876418	9.52078	-3.23052	0.00296631	0.00567627	3.23052	
6.42803	5.46875	50.2847	4.9884	0.0247192	0.00335693	0.0189209	6.28707	-0.736821	50.0807	0.876412	9.52085	-3.23377	0.00303955	0.0015625	3.23377	
6.55833	-0.6875	50.1784	4.98657	0.0274658	0.00183105	-0.0326538	6.28405	-0.733182	50.0805	0.876408	9.52089	-3.23685	0.00296631	-0.00203857	3.23685	
6.34116	-0.53125	49.9338	4.99115	0.0268555	0.00396729	-0.0265503	6.28124	-0.728661	50.0803	0.876405	9.52093	-3.23969	0.00300293	-0.00238037	3.23969	
6.38459	-0.21875	50.1252	4.97681	0.0250244	0.00396729	-0.0265503	6.27861	-0.724152	50.0801	0.876402	9.52097	-3.24236	0.00302734	-0.00192871	3.24236	
6.60176	-0.28125	50.274	4.98474	0.0238037	0.00457764	-0.0350952	6.27617	-0.719545	50.0799	0.876399	9.52101	-3.24484	0.00305176	-0.00187988	3.24484	
7.77444	0.15625	50.4654	4.98444	0.0244141	0.00213623	-0.0704956	6.27416	-0.714749	50.0799	0.876398	9.52101	-3.24685	0.00297852	-0.00286865	3.24685	
4.95132	0.09375	50.1571	4.97772	0.0265503	0.00274658	-0.0259399	6.27254	-0.709657	50.08	0.8764	9.52099	-3.24845	0.00292969	-0.00352783	3.24845	
5.16848	0.21875	50.0083	4.98962	0.0256348	0.00396729	0.0997925	6.27062	-0.704216	50.0802	0.876403	9.52095	-3.25033	0.0032959	-0.00177002	3.25033	
4.64729	-1.84375	49.9232	4.97925	0.0283813	0.00213623	0.0326538	6.26797	-0.698731	50.0803	0.876406	9.52092	-3.25295	0.00333252	-0.000134277	3.25295	
5.73311	-1.40625	49.9551	4.99481	0.0265503	0.00152588	0.0216675	6.26465	-0.693761	50.0804	0.876407	9.52091	-3.25625	0.00323486	0.00032959	3.25625	
4.99475	-1.28125	51.0608	4.99084	0.0253296	0.00274658	0.00701904	6.26084	-0.689455	50.0806	0.87641	9.52088	-3.26004	0.00321045	0.00303955	3.26004	
5.73311	-0.78125	50.2315	4.99146	0.0262451	0.000305176	-0.0195313	6.25661	-0.685608	50.081	0.876418	9.52079	-3.26418	0.00307617	0.00146484	3.26418	
5.73311	-0.75	50.1252	4.99237	0.0265503	0.0088501	0.0354004	6.25208	-0.682028	50.0817	0.876429	9.52066	-3.26858	0.00338135	0.00200195	3.26858	
6.16743	-1.3125	50.0189	4.99146	0.0259399	0.00396729	-0.0109863	6.24746	-0.678707	50.0823	0.87644	9.52053	-3.27307	0.00338135	0.000524902	3.27307	
5.47251	-1.28125	50.0189	4.99054	0.0271606	0.00152588	-0.045166	6.24277	-0.675803	50.0829	0.876451	9.52041	-3.27763	0.00345459	-0.00100098	3.27763	
4.86445	-5	49.785	4.9942	0.0241089	0.00335693	-0.0888062	6.23779	-0.673958	50.0834	0.87646	9.52031	-3.28252	0.00344238	-0.0027832	3.28252	
2.38879	-1.625	49.8063	4.99634	0.0265503	0.00335693	0.0244141	6.23183	-0.673762	50.0838	0.876466	9.52024	-3.28841	0.00343018	-0.00333252	3.28841	
6.2543	-0.4375	50.5505	4.98932	0.0253296	0.00274658	-0.0161743	6.22468	-0.674502	50.084	0.876471	9.52018	-3.2955	0.00345459	-0.00435791	3.2955	
7.16638	0.40625	51.6349	4.98901	0.0213623	0.00305176	0.0320435	6.21734	-0.675123	50.0846	0.876481	9.52006	-3.30272	0.00345459	-1.2207E-005	3.30272	
6.68862	-1.21875	50.3804	4.98932	0.0247192	0.00335693	0.0479126	6.21064	-0.675434	50.0858	0.876502	9.51983	-3.30919	0.0034668	0.00316162	3.30919	
7.07952	-0.40625	51.5923	4.97589	0.0256348	0.00213623	-0.0543213	6.20459	-0.675693	50.0875	0.876532	9.51948	-3.31489	0.00338135	-0.000341797	3.31489	
17.1125	-0.53125	50.3485	4.98901	0.0241089	0.00183105	0.032959	6.2008	-0.675922	50.0897	0.87657	9.51904	-3.31824	0.00334473	-0.000476074	3.31824	
6.55833	-1.34375	50.1039	4.99146	0.0244141	0.00305176	0.00823975	6.20072	-0.676159	50.0922	0.876613	9.51856	-3.31784	0.00311279	0.000744629	3.31784	
5.47251	-1.375	50.0189	4.99023	0.0247192	0.00152588	-0.0311279	6.20233	-0.676681	50.0945	0.876655	9.51808	-3.31575	0.00292969	-0.00405273	3.31575	
6.81892	-0.09375	50.4441	4.98901	0.0234985	0.00152588	-0.0619507	6.20381	-0.677414	50.0969	0.876695	9.51761	-3.31381	0.00294189	-0.00737305	3.31381	
7.42698	-0.125	52.2834	4.96857	0.0234985	0.00305176	-0.00762939	6.2055	-0.677964	50.0996	0.876742	9.51707	-3.31157	0.00292969	-0.00843506	3.31157	
7.94817	-0.40625	50.3166	4.98016	0.0228882	0.0012207	0.00762939	6.20788	-0.678189	50.1029	0.876801	9.5164	-3.30852	0.00290527	-0.00682373	3.30852	
4.95132	-0.84375	50.0614	4.98901	0.0256348	-0.0012207	-0.00366211	6.21071	-0.678263	50.1066	0.876865	9.51567	-3.30496	0.00269775	-0.0059082	3.30496	
1.56357	-2.375	50.0189	4.99481	0.0265503	0.00183105	-0.0393677	6.2126	-0.678606	50.1101	0.876926	9.51497	-3.30237	0.0026123	-0.0064209	3.30237	
5.29878	-0.90625	50.0827	5.00183	0.0259399	0.00305176	-0.0149536	6.21265	-0.679525	50.1134	0.876985	9.5143	-3.30165	0.00255127	-0.00561523	3.30165	
5.55938	-2.1875	49.9232	4.98932	0.0259399	0.00274658	0.0491333	6.21158	-0.680978	50.1166	0.877041	9.51366	-3.30208	0.00257568	-0.000830078	3.30208	
6.124	-0.71875	50.0295	4.98718	0.0231934	0.00152588	0.0460815	6.2102	-0.68289	50.1196	0.877093	9.51306	-3.30286	0.00252686	0.00205078	3.30286	
4.43013	-1.25	50.3485	4.98535	0.0256348	0.00152588	0.0436401	6.20846	-0.685067	50.1225	0.877143	9.51249	-3.30403	0.0024292	-0.000195313	3.30403	
3.25745	-0.84375	48.9026	4.98749	0.0259399	0.0012207	0.0378418	6.20576	-0.687373	50.1251	0.877189	9.51196	-3.3062	0.00239258	1.2207E-005	3.3062	
5.12505	-1.34375	49.9019	4.98657	0.0250244	0.00457764	-0.00823975	6.20179	-0.689836	50.1273	0.877227	9.51153	-3.30974	0.00251465	-0.00118408	3.30974	
5.16848	-0.8125	50.0083	4.9881	0.0262451	0.00152588	-0.00396729	6.19701	-0.692459	50.1291	0.877259	9.51117	-3.31415	0.00246582	-0.00162354	3.31415	
14.4631	-1.40625	49.8382	4.9881	0.0268555	0.00183105	-0.0662231	6.1932	-0.69524	50.1307	0.877287	9.51084	-3.31764	0.00252686	-0.00349121	3.31764	
6.64519	0.90625	50.3166	4.97986	0.0241089	0.00274658	-0.0680542	6.192	-0.697914	50.1322	0.877313	9.51054	-3.31855	0.00228271	-0.00762939	3.31855	
7.9916	0.15625	50.189	4.97223	0.0247192	0.00366211	0.0253296	6.19254	-0.699974	50.1336	0.877339	9.51025	-3.31772	0.00227051	-0.00617676	3.31772	
7.25325	-0.125	50.274	4.97589	0.0268555	0.00274658	-0.0497437	6.19385	-0.701358	50.1351	0.877365	9.50996	-3.3161	0.00231934	-0.00635986	3.3161	
6.16743	-0.34375	50.0402	4.97528	0.0259399	0.00213623	-0.00610352	6.19573	-0.702326	50.1366	0.87739	9.50966	-3.31394	0.00227051	-0.00305176	3.31394	
6.86235	-0.84375	47.0633	4.97955	0.0253296	0.00488281	0.00946045	6.19779	-0.703082	50.1375	0.877406	9.50948	-3.31169	0.00233154	-0.0036499	3.31169	
5.9937	-0.125	50.0189	4.97681	0.0250244	0.00396729	-0.00213623	6.19996	-0.703709	50.1374	0.877405	9.5095	-3.30954	0.00238037	-0.00308838	3.30954	
10.2067	-1.09375	50.2103	4.98047	0.0259399	0.00244141	0.0650024	6.2027	-0.704217	50.1368	0.877394	9.50962	-3.30691	0.00235596	-0.00177002	3.30691	
6.81892	-0.09375	50.2953	4.9765	0.0238037	0.00396729	0.0177002	6.20666	-0.704644	50.1363	0.877385	9.50973	-3.30307	0.00238037	-0.00297852	3.30307	
8.07847	-2.34375	50.2528	4.9707	0.0250244	0.00366211	-0.0149536	6.21158	-0.705181	50.1358	0.877377	9.50982	-3.29823	0.00244141	-0.00140381	3.29823	
6.47146	0.34375	50.4335	4.99878	0.0253296	0.00335693	0.0183105	6.21705	-0.70595	50.1355	0.877371	9.50988	-3.29284	0.00250244	-0.00198975	3.29284	
5.29878	-1.71875	49.8169	4.97223	0.0256348	0.00213623	-0.00701904	6.22254	-0.706777	50.1352	0.877367	9.50993	-3.28739	0.00246582	-0.0026001	3.28739	
5.9937	-1.59375	48.5624	4.97711	0.0259399	0.00366211	-0.0106812	6.22757	-0.707865	50.1347	0.877357	9.51004	-3.28248	0.00255127	-0.00178223	3.28248	
6.03713	-1.0625	49.7212	4.97681	0.0253296	0.00274658	-0.0350952	6.23217	-0.709401	50.1336	0.877337	9.51027	-3.2781	0.0026001	-0.000708008	3.2781	
7.42698	-0.9375	49.8063	4.97345	0.0274658	0.00213623	-0.00274658	6.23669	-0.711166	50.1321	0.877311	9.51057	-3.27387	0.00256348	-0.000512695	3.27387	
5.47251	-0.59375	50.3166	4.99481	0.0253296	0.00274658	-0.0546265	6.24128	-0.712975	50.1305	0.877283	9.51089	-3.2696	0.00262451	-0.00300293	3.2696	
6.60176	-2.09375	50.1252	4.97528	0.0250244	0.00274658	0.0106812	6.24571	-0.714934	50.1289	0.877257	9.51119	-3.26548	0.0027832	-0.0024292	3.26548	
5.9937	-0.59375	49.8594	4.97925	0.0247192	0.00427246	0.0924683	6.24994	-0.717214	50.1275	0.87723	9.51149	-3.26155	0.00288086	0.00284424	3.26155	
6.124	-0.78125	50.0295	4.97559	0.0283813	0.00152588	0.0500488	6.25398	-0.7196	50.1259	0.877204	9.5118	-3.25782	0.00281982	0.00544434	3.25782	
5.42908	-0.84375	49.381	4.97742	0.0268555	0.00305176	0.00518799	6.25766	-0.721921	50.1243	0.877174	9.51213	-3.25447	0.00283203	0.00368652	3.25447	
4.47356	-1.4375	49.785	4.99664	0.0280762	0.00335693	0.0387573	6.26066	-0.724319	50.1223	0.877141	9.51251	-3.25185	0.00290527	0.00339355	3.25185	
7.60071	-0.53125	50.1996	4.96979	0.0234985	-0.00335693	0.0140381	6.26309	-0.726844	50.1203	0.877105	9.51292	-3.24984	0.00270996	0.00220947	3.24984	
6.94922	0.15625	50.3804	4.96704	0.0244141	0.00213623	0.00915527	6.26567	-0.729193	50.1183	0.877071	9.51332	-3.24765	0.00274658	0.00106201	3.24765	
7.03608	-0.875	50.0827	4.96613	0.0265503	0.00213623	-0.017395	6.2687	-0.731177	50.1165	0.877039	9.51368	-3.24498	0.00264893	0.000695801	3.24498	
6.47146	-3	50.274	4.96887	0.0238037	0.00152588	-0.0332642	6.27199	-0.73335	50.1148	0.87701	9.51402	-3.24202	0.00264893	-0.000476074	3.24202	
6.2543	-0.78125	50.3591	4.98627	0.0259399	0.0012207	-0.0637817	6.27536	-0.736181	50.1133	0.876983	9.51433	-3.23897	0.00262451	-0.000378418	3.23897	
6.21086	-0.21875	50.1039	4.97467	0.0259399	0.00183105	-0.0296021	6.27861	-0.739197	50.1119	0.876958	9.51461	-3.23599	0.00258789	0.00115967	3.23599	
5.73311	-0.59375	49.4767	4.97467	0.0259399	0.00213623	0.0582886	6.28165	-0.741931	50.1105	0.876933	9.51489	-3.23324	0.00252686	0.00247803	3.23324	
6.64519	-0.15625	50.072	4.9707	0.0247192	0.000915527	0.0274658	6.28445	-0.744351	50.1089	0.876906	9.5152	-3.23075	0.00245361	0.00556641	3.23075	
8.33906	0.5	50.3166	4.97101	0.0234985	-0.00549316	-0.0314331	6.2875	-0.746288	50.1073	0.876878	9.51552	-3.22802	0.00214844	0.00455322	3.22802	
8.20876	0.46875	50.0508	4.96613	0.0234985	0.00335693	-0.098877	6.29144	-0.74749	50.1059	0.876852	9.51582	-3.22438	0.0020874	0.000219727	3.22438	
5.73311	-1.6875	49.8488	4.97833	0.0265503	0.00396729	0.00457764	6.29606	-0.748225	50.1044	0.876827	9.51611	-3.22004	0.0020874	0.000488281	3.22004	
5.42908	5.21875	49.8701	4.98199	0.0253296	0.00152588	0.0363159	6.30051	-0.748112	50.1029	0.8768	9.51641	-3.2159	0.00205078	-0.00065918	3.2159	
5.34221	-1.125	49.6999	4.98047	0.0280762	0.00274658	0.0527954	6.3043	-0.746355	50.1012	0.876772	9.51674	-3.21244	0.00200195	0.000744629	3.21244	
5.73311	-0.53125	49.5086	4.97925	0.0253296	0	-0.0192261	6.30743	-0.743818	50.0994	0.876739	9.51711	-3.20968	0.00185547	0.00057373	3.20968	
6.03713	-0.84375	49.8701	4.98047	0.0265503	0.00335693	0.00274658	6.31008	-0.741378	50.0973	0.876703	9.51752	-3.20744	0.00185547	-4.88281E-005	3.20744	
6.16743	-0.78125	49.8488	4.98077	0.0234985	-0.00366211	-0.0656128	6.31244	-0.739029	50.0951	0.876665	9.51796	-3.20551	0.00162354	-0.00239258	3.20551	
3.77864	-1.09375	50.0189	4.97711	0.027771	0.00213623	-0.0515747	6.31425	-0.736847	50.0929	0.876626	9.51841	-3.20416	0.0015625	-0.00402832	3.20416	
-5.55937	-1.28125	49.9764	4.97681	0.0283813	0.00427246	0.00274658	6.31333	-0.734942	50.0907	0.876587	9.51885	-3.20552	0.00162354	-0.00251465	3.20552	
4.82102	1.15625	49.6999	4.98688	0.0241089	0.00335693	0.0698853	6.30814	-0.733036	50.0884	0.876547	9.51931	-3.21117	0.00167236	0.000390625	3.21117	
4.82102	-1.46875	49.7531	4.98566	0.0253296	0.00152588	-0.0115967	6.3006	-0.73081	50.086	0.876506	9.51978	-3.21919	0.00162354	0.00211182	3.21919	
7.38354	-0.34375	49.9338	4.98322	0.0253296	0.00396729	-0.00579834	6.29279	-0.728537	50.0836	0.876462	9.52028	-3.22748	0.00167236	0.00145264	3.22748	
7.8613	0	50.5292	4.98047	0.0256348	0.00213623	0.0222778	6.28562	-0.726227	50.0811	0.87642	9.52076	-3.23514	0.00158691	-0.00135498	3.23514	
6.124	0.03125	50.2422	4.97833	0.0234985	0.000610352	0.0088501	6.27933	-0.723594	50.0789	0.876382	9.5212	-3.24187	0.00155029	-0.00300293	3.24187	
5.95027	-1.375	50.9757	4.97345	0.0241089	0.00396729	0.0012207	6.27341	-0.720808	50.0771	0.876349	9.52157	-3.24817	0.00158691	-0.00316162	3.24817	
2.08477	-0.15625	50.2315	4.98596	0.0262451	0.00335693	-0.00579834	6.26692	-0.718119	50.0756	0.876323	9.52186	-3.25495	0.00158691	-0.00494385	3.25495	
6.21086	-0.34375	49.8701	4.98535	0.0259399	0.00152588	-0.0939941	6.2593	-0.715392	50.0744	0.876301	9.52212	-3.26282	0.00178223	-0.00926514	3.26282	
5.81997	3.46875	50.1252	4.98535	0.0228882	0.00488281	0.0878906	6.25121	-0.71191	50.0731	0.87628	9.52237	-3.27115	0.00189209	-0.00611572	3.27115	
6.51489	-0.375	50.189	4.9881	0.0265503	0.00366211	0.0241089	6.24331	-0.707143	50.0719	0.876259	9.52261	-3.27929	0.00195313	-0.00445557	3.27929	
2.17163	0.15625	50.391	4.97894	0.0256348	0.00274658	0.0436401	6.23507	-0.701657	50.0709	0.87624	9.52282	-3.28775	0.00200195	-0.00137939	3.28775	
6.94922	0.125	50.1252	4.98657	0.0238037	0.00274658	0.00518799	6.22602	-0.695917	50.07	0.876224	9.523	-3.29698	0.00206299	0.00137939	3.29698	
5.68967	-1.46875	50.0083	4.99329	0.0250244	0.00640869	-0.0164795	6.21679	-0.690111	50.0692	0.87621	9.52316	-3.30637	0.00224609	0.0019043	3.30637	
3.51804	-1.59375	50.0402	4.9942	0.0265503	0.0012207	-0.0762939	6.20741	-0.684764	50.0684	0.876196	9.52332	-3.31591	0.00220947	-0.003479	3.31591	
14.6802	-1.21875	50.0189	4.98901	0.0265503	0.00274658	-0.0167847	6.19876	-0.680089	50.0676	0.876182	9.52348	-3.32472	0.00228271	-0.00524902	3.32472	
5.42908	0.84375	50.1039	4.99023	0.0241089	0.0012207	0.0149536	6.19251	-0.67565	50.0668	0.876169	9.52363	-3.33112	0.00255127	-0.00339355	3.33112	
5.21191	-0.6875	50.0189	4.9942	0.0247192	0.00488281	0.0369263	6.18741	-0.670981	50.066	0.876155	9.52379	-3.33638	0.0026123	0.00203857	3.33638	
6.38459	-1	49.8701	4.99054	0.0259399	0.00152588	0.0149536	6.1821	-0.666296	50.0653	0.876142	9.52394	-3.34184	0.00251465	0.00245361	3.34184	
6.124	-1	50.8269	4.98596	0.0247192	0.00213623	-0.0231934	6.17687	-0.661934	50.0646	0.87613	9.52408	-3.34721	0.00253906	7.32422E-005	3.34721	
5.29878	-0.84375	49.1258	4.99542	0.0265503	0.00457764	0.0106812	6.17171	-0.657909	50.064	0.876119	9.5242	-3.35249	0.0026123	-0.00161133	3.35249	
4.38669	-1.34375	49.8382	4.99359	0.0265503	0.0106812	0.00366211	6.16617	-0.654242	50.0632	0.876105	9.52436	-3.35819	0.00303955	-0.000695801	3.35819	
5.42908	-2.28125	49.9019	4.99115	0.0259399	0.00213623	-0.0445557	6.16002	-0.651199	50.0622	0.876088	9.52456	-3.36454	0.00299072	-0.00258789	3.36454	
7.34011	0.71875	50.2634	4.99023	0.0256348	0.00366211	-0.0350952	6.15377	-0.648662	50.0611	0.87607	9.52477	-3.371	0.00328369	-0.00136719	3.371	
6.47146	-5.375	50.1784	4.98444	0.0250244	0.00335693	-0.045166	6.14804	-0.646777	50.0602	0.876053	9.52495	-3.37691	0.00333252	-0.00111084	3.37691	
5.81997	-0.34375	50.3804	4.98749	0.0241089	0.00213623	0.0436401	6.14275	-0.646166	50.0594	0.87604	9.52511	-3.38236	0.00324707	0.000524902	3.38236	
6.68862	-0.3125	50.3166	4.99023	0.0265503	0.00396729	-0.000915527	6.13768	-0.646164	50.0588	0.876029	9.52523	-3.38755	0.00327148	-0.00230713	3.38755	
5.51594	-1.53125	49.9232	4.99054	0.0265503	0.00274658	0.0231934	6.13281	-0.646149	50.0583	0.876021	9.52532	-3.39251	0.00332031	-0.000915527	3.39251	
6.03713	-0.53125	49.9445	4.97437	0.0253296	0.00213623	-0.0125122	6.12799	-0.64634	50.0579	0.876013	9.52542	-3.39743	0.00324707	-0.00118408	3.39743	
7.12295	-1.21875	50.2315	4.98932	0.0259399	0.00213623	-0.0302124	6.12337	-0.646714	50.0574	0.876004	9.52551	-3.40215	0.00324707	-0.00328369	3.40215	
15.0277	-0.59375	50.4016	4.99664	0.0238037	0.00274658	0.00274658	6.12059	-0.647227	50.057	0.875998	9.52559	-3.405	0.00333252	-0.00352783	3.405	
7.55728	-1.0625	50.4335	4.98688	0.0219727	0.00305176	-0.00915527	6.12104	-0.647858	50.0568	0.875995	9.52562	-3.40458	0.0032959	-0.00394287	3.40458	
7.38354	-6.40625	50.3804	4.98627	0.022583	0.00213623	-0.0506592	6.12351	-0.649481	50.0569	0.875996	9.52561	-3.4021	0.00324707	-0.0057373	3.4021	
4.86445	-2.90625	50.0827	4.97406	0.0247192	0.00274658	-0.00396729	6.12631	-0.653248	50.0571	0.876	9.52557	-3.39926	0.0032959	-0.00213623	3.39926	
5.16848	-1.34375	49.8913	4.99451	0.0265503	0.00305176	-0.0497437	6.12866	-0.658582	50.0574	0.876004	9.52552	-3.39686	0.00322266	-0.0076416	3.39686	
6.29773	-1.65625	49.9764	4.99115	0.0256348	0.00274658	0.0564575	6.13047	-0.664445	50.0575	0.876007	9.52548	-3.39502	0.00318604	-0.00634766	3.39502	
5.03818	-0.84375	49.785	4.99054	0.0241089	-0.0012207	0.0436401	6.13194	-0.670545	50.0576	0.876008	9.52547	-3.39353	0.00302734	-0.00634766	3.39353	
9.12085	-1.34375	50.0402	4.99268	0.0271606	0.00274658	-0.0546265	6.13352	-0.676743	50.0576	0.876008	9.52548	-3.39196	0.00302734	-0.00874023	3.39196	
6.29773	-1.78125	49.9232	4.98352	0.0259399	0.00366211	-0.032959	6.13582	-0.683129	50.0575	0.876006	9.52549	-3.38968	0.00291748	-0.00939941	3.38968	
6.21086	-0.625	50.0614	4.98077	0.0265503	0.00274658	0.0131226	6.13856	-0.689726	50.0573	0.876004	9.52552	-3.38696	0.00297852	-0.00582275	3.38696	
6.21086	-1.34375	50.0189	4.98505	0.0289917	0.00152588	-0.0131226	6.14127	-0.696344	50.0572	0.876001	9.52555	-3.38428	0.00292969	-0.00567627	3.38428	
5.12505	-1.46875	50.0189	4.9881	0.0274658	0.00305176	0.0741577	6.14376	-0.70304	50.057	0.875998	9.52559	-3.38183	0.00300293	-0.00330811	3.38183	
5.68967	-2.03125	48.8601	4.9884	0.0265503	0.00427246	0.0576782	6.14579	-0.710045	50.0567	0.875991	9.52566	-3.37988	0.00297852	-0.00247803	3.37988	
5.9937	-0.46875	50.2103	4.98199	0.0256348	0.00213623	-0.0180054	6.14742	-0.717296	50.0559	0.875979	9.5258	-3.37839	0.00300293	-0.00379639	3.37839	
7.03608	-0.03125	50.5079	4.97711	0.0241089	-0.00274658	-0.00579834	6.14901	-0.724313	50.0552	0.875966	9.52595	-3.37694	0.00280762	-0.00310059	3.37694	
0.868652	-0.375	50.3485	4.98566	0.0256348	0.00335693	-0.0619507	6.14998	-0.730777	50.0547	0.875957	9.52606	-3.37608	0.00275879	-0.00600586	3.37608	
7.34011	-1.53125	50.3166	4.98108	0.0241089	0.00366211	-0.0204468	6.1496	-0.736921	50.0544	0.875952	9.52611	-3.37652	0.00247803	-0.00697021	3.37652	
6.77549	0.90625	50.2315	4.98169	0.0259399	0.00152588	-0.0231934	6.14888	-0.742785	50.0543	0.875949	9.52614	-3.37726	0.00245361	-0.00611572	3.37726	
6.08057	-0.65625	50.2103	4.98413	0.0265503	0.00488281	0.0805664	6.14855	-0.748041	50.0543	0.875949	9.52614	-3.37759	0.00250244	-0.00148926	3.37759	
5.81997	-1.1875	49.6149	4.9826	0.0265503	0.00274658	0.0387573	6.14826	-0.752898	50.0543	0.875949	9.52614	-3.37788	0.00247803	0.00186768	3.37788	
5.77654	-0.71875	50.3591	4.98871	0.0259399	0.00274658	0.0622559	6.14781	-0.757699	50.0542	0.875948	9.52615	-3.37834	0.00250244	0.0026123	3.37834	
7.77444	0.46875	50.2315	4.97589	0.022583	0.000305176	-0.0143433	6.14746	-0.762196	50.0542	0.875948	9.52615	-3.37869	0.00235596	0.0020752	3.37869	
7.73101	0.0625	50.3166	4.97284	0.0256348	0.00457764	-0.0177002	6.14782	-0.76602	50.0543	0.875951	9.52613	-3.3783	0.0024292	0.000439453	3.3783	
0.0868652	-1.875	49.9338	4.96918	0.0265503	0.00335693	-0.017395	6.14797	-0.769434	50.0545	0.875955	9.52608	-3.37811	0.00247803	0.000244141	3.37811	
4.64729	-1.59375	49.8913	4.97955	0.0253296	0.00213623	-0.0350952	6.14624	-0.77307	50.0547	0.875958	9.52604	-3.3798	0.00247803	4.88281E-005	3.3798	
5.81997	-1.34375	49.9232	5.00122	0.0241089	0.00366211	0.0143433	6.14312	-0.777094	50.0548	0.87596	9.52602	-3.3829	0.00251465	0.000512695	3.3829	
5.9937	-1.34375	49.7744	4.97681	0.0247192	0.000915527	0.0128174	6.13976	-0.781368	50.0548	0.875959	9.52603	-3.38627	0.0024292	0.0013916	3.38627	
6.73206	-0.5625	49.3278	4.97772	0.0265503	0.00213623	-0.032959	6.1365	-0.78572	50.0546	0.875955	9.52607	-3.38957	0.0024292	0.00209961	3.38957	
6.51489	-1.125	50.1571	4.97711	0.0234985	0.0012207	-0.00823975	6.13359	-0.78999	50.0541	0.875947	9.52617	-3.39258	0.00236816	0.00192871	3.39258	
6.68862	-0.84375	49.9338	4.98047	0.0247192	0.00762939	-0.0283813	6.13107	-0.794188	50.0535	0.875937	9.52628	-3.39522	0.00255127	0.0027832	3.39522	
5.38564	-1.15625	50.0614	4.9942	0.0289917	0.00213623	-0.0534058	6.12875	-0.798362	50.053	0.875927	9.5264	-3.39764	0.00252686	-0.00161133	3.39764	
5.68967	0.03125	49.7106	4.97681	0.0253296	0.0012207	-0.0195313	6.12631	-0.80238	50.0524	0.875916	9.52652	-3.40021	0.00262451	-0.00413818	3.40021	
5.08162	4.15625	49.8275	4.97711	0.0271606	0.00396729	0.0979614	6.12354	-0.805284	50.0516	0.875904	9.52666	-3.40313	0.00267334	0.00196533	3.40313	
7.60071	-0.34375	50.1784	4.97192	0.0247192	0.00213623	-0.0280762	6.1207	-0.806346	50.0508	0.875889	9.52683	-3.40613	0.0026123	0.00216064	3.40613	
6.51489	0.09375	50.1358	4.96735	0.0253296	0.00152588	0.0231934	6.11832	-0.806318	50.0501	0.875876	9.52698	-3.40866	0.00256348	0.00256348	3.40866	
6.34116	-0.125	50.3485	4.98688	0.0247192	0.00335693	0.0695801	6.11641	-0.805834	50.0494	0.875865	9.52711	-3.41069	0.00263672	0.00587158	3.41069	
7.55728	-0.34375	50.3591	4.97284	0.0250244	0.00488281	0.0238037	6.11493	-0.804944	50.049	0.875857	9.5272	-3.41227	0.00270996	0.00385742	3.41227	
6.68862	-0.40625	50.1465	4.97375	0.0283813	0.00274658	0.0149536	6.11407	-0.803775	50.0487	0.875852	9.52726	-3.41319	0.00264893	0.00214844	3.41319	
6.34116	-0.5	50.189	4.97375	0.0256348	0.00274658	-0.0418091	6.11367	-0.802405	50.0485	0.875848	9.5273	-3.41362	0.00267334	0.00119629	3.41362	
6.51489	1.15625	50.1252	4.97833	0.0231934	0.00366211	-0.00274658	6.11351	-0.800624	50.0484	0.875847	9.52732	-3.4138	0.00292969	0.00131836	3.4138	
6.73206	-0.0625	50.3485	4.98627	0.0228882	0.00152588	-0.083313	6.11362	-0.798136	50.0484	0.875846	9.52732	-3.4137	0.00285645	0.000463867	3.4137	
7.47041	0.40625	50.1252	4.97009	0.0244141	0.00274658	-0.098877	6.11418	-0.795017	50.0485	0.875848	9.5273	-3.41312	0.00281982	-0.00267334	3.41312	
7.07952	0.03125	51.1458	4.96887	0.0250244	0.00366211	0.0183105	6.11539	-0.791393	50.0488	0.875854	9.52723	-3.41184	0.00290527	-0.00101318	3.41184	
5.03818	-1.28125	49.8275	4.97528	0.0241089	0.0012207	0.0845337	6.1169	-0.78753	50.0495	0.875866	9.5271	-3.4102	0.00275879	-0.000854492	3.4102	
4.47356	-1.84375	50.274	4.98962	0.0234985	0.00366211	0.0579834	6.11792	-0.783992	50.0502	0.875879	9.52694	-3.40903	0.00279541	-8.54492E-005	3.40903	
0.868652	-0.875	49.8594	4.97223	0.0247192	0.00152588	-0.00518799	6.11741	-0.780997	50.051	0.875892	9.5268	-3.40939	0.00274658	-0.0027832	3.40939	
5.64624	-0.46875	49.9232	4.97833	0.0259399	0.00335693	0.0588989	6.11496	-0.778253	50.0517	0.875904	9.52666	-3.4117	0.00286865	0.000146484	3.4117	
5.21191	1.78125	50.0189	4.9762	0.0238037	0.00274658	0.0314331	6.11149	-0.775126	50.0522	0.875914	9.52655	-3.41505	0.00279541	0.00211182	3.41505	
6.16743	-0.1875	50.0402	4.97711	0.0247192	0.00366211	0.00823975	6.10781	-0.771177	50.0527	0.875923	9.52644	-3.41863	0.00280762	0.00313721	3.41863	
5.81997	-0.34375	50.3485	4.97711	0.0265503	0.00152588	0.0338745	6.10409	-0.766722	50.0533	0.875933	9.52633	-3.42225	0.0027832	0.005896	3.42225	
6.16743	-1.40625	51.5817	4.97711	0.0280762	0.00274658	0.00396729	6.10043	-0.762301	50.0541	0.875947	9.52616	-3.42574	0.00274658	0.00548096	3.42574	
5.38564	-1.59375	49.583	4.97772	0.0265503	0.00213623	-0.0357056	6.09676	-0.758298	50.0554	0.87597	9.52591	-3.42915	0.00279541	0.00354004	3.42915	
4.51699	-1	49.8275	4.98352	0.0271606	0.00518799	0.00396729	6.09277	-0.754832	50.0567	0.875992	9.52566	-3.43289	0.00291748	0.00501709	3.43289	
7.55728	-0.375	50.072	4.98169	0.0250244	0.00518799	-0.0125122	6.08854	-0.751635	50.0578	0.876011	9.52544	-3.43689	0.00307617	0.00484619	3.43689	
7.51384	-1.28125	50.0933	4.97772	0.0213623	0.000610352	-0.0411987	6.0849	-0.748553	50.0588	0.876029	9.52523	-3.44033	0.00279541	0.0043335	3.44033	
7.16638	-2.65625	50.1784	4.97711	0.0244141	0.00274658	-0.0311279	6.08222	-0.745982	50.0598	0.876047	9.52503	-3.44281	0.00281982	0.00522461	3.44281	
6.34116	-0.375	50.1039	4.97711	0.0265503	0.00213623	-0.0527954	6.08024	-0.744119	50.0608	0.876065	9.52482	-3.44458	0.00285645	0.00389404	3.44458	
5.55938	-0.5625	50.593	4.98413	0.0259399	0.00457764	-0.085144	6.07849	-0.742475	50.062	0.876084	9.5246	-3.44611	0.00288086	-0.00343018	3.44611	
5.64624	-0.84375	50.1252	4.98016	0.0262451	0.00396729	-0.00183105	6.07662	-0.740791	50.0632	0.876106	9.52435	-3.44773	0.0029541	-0.00238037	3.44773	
5.47251	-0.46875	50.072	4.98199	0.0247192	-0.00366211	0.00762939	6.0745	-0.739128	50.0645	0.876129	9.52408	-3.44958	0.00274658	-0.00300293	3.44958	
5.16848	-0.34375	50.2422	4.97772	0.0256348	0.00213623	-0.0271606	6.07207	-0.737394	50.0658	0.876152	9.52382	-3.45176	0.00269775	-0.00687256	3.45176	
6.60176	-0.09375	50.4335	4.98413	0.0259399	0.00610352	-0.00335693	6.06942	-0.735458	50.0672	0.876176	9.52355	-3.45412	0.00274658	-0.00795898	3.45412	
7.38354	-2.28125	50.274	4.9765	0.0241089	0.00335693	0.0305176	6.0671	-0.733568	50.0687	0.876202	9.52325	-3.45614	0.002771	-0.00733643	3.45614	
4.90789	-1.125	49.8913	4.98016	0.0271606	0.00183105	0.062561	6.06518	-0.732187	50.0702	0.876229	9.52294	-3.45776	0.00273437	-0.00316162	3.45776	
5.12505	-1.375	49.9338	4.99146	0.0259399	0.00396729	0.0259399	6.06302	-0.731315	50.0717	0.876255	9.52265	-3.45964	0.00274658	-0.00201416	3.45964	
5.81997	-1.09375	48.2328	4.99237	0.027771	0.00457764	-0.00579834	6.06042	-0.730791	50.0727	0.876273	9.52245	-3.46202	0.00286865	0.00108643	3.46202	
5.47251	-1.09375	49.8913	4.9881	0.0250244	0.00396729	-0.0256348	6.05761	-0.730554	50.0731	0.876279	9.52237	-3.46476	0.00291748	0.00401611	3.46476	
4.43013	-0.71875	50.0402	4.98901	0.0241089	0.00213623	0.0119019	6.05442	-0.730493	50.0731	0.87628	9.52237	-3.46794	0.00285645	0.00375977	3.46794	
6.51489	-0.53125	50.1465	4.97681	0.0244141	0.00610352	0.0143433	6.05083	-0.730456	50.0731	0.876279	9.52237	-3.47154	0.00305176	0.000952148	3.47154	
4.95132	-0.375	50.0083	4.98444	0.0262451	0.00213623	-0.0811768	6.04708	-0.730301	50.0731	0.876279	9.52237	-3.47529	0.00299072	-0.00461426	3.47529	
5.34221	-1.59375	50.0083	4.9881	0.0265503	0.00152588	-0.0488281	6.04308	-0.730144	50.0731	0.876279	9.52237	-3.47929	0.00299072	-0.00635986	3.47929	
4.34326	-1.34375	49.7531	4.99298	0.0250244	0.00305176	0.0161743	6.03857	-0.730301	50.073	0.876277	9.52239	-3.48382	0.00297852	-0.00806885	3.48382	
4.86445	-2.09375	49.2534	4.9942	0.0265503	0.00366211	0.017395	6.03341	-0.730989	50.0726	0.876271	9.52246	-3.48905	0.00301514	-0.00863037	3.48905	
6.34116	0.28125	50.3804	4.97162	0.0259399	0.00274658	0.0234985	6.02785	-0.732013	50.0721	0.876261	9.52258	-3.49473	0.00297852	-0.00802002	3.49473	
7.8613	-0.09375	50.4335	4.98688	0.0234985	-0.00213623	0.00213623	6.02268	-0.732799	50.0715	0.876252	9.52268	-3.5	0.00283203	-0.00928955	3.5	
10.0764	-0.0625	50.2847	4.98749	0.0271606	0.00335693	0.0485229	6.01894	-0.733098	50.0712	0.876246	9.52275	-3.50381	0.00285645	-0.00750732	3.50381	
6.64519	-0.5	50.3378	4.99054	0.0265503	0.00183105	0.0479126	6.01698	-0.733044	50.0711	0.876244	9.52278	-3.5058	0.00284424	-0.0041626	3.5058	
6.68862	-0.96875	50.1252	4.99176	0.0216675	0.00427246	0.0198364	6.01601	-0.732851	50.0711	0.876243	9.52278	-3.50677	0.00280762	-0.00352783	3.50677	
6.81892	-0.34375	49.9976	4.96918	0.0259399	0.00366211	-0.0350952	6.01551	-0.732642	50.0711	0.876244	9.52277	-3.50727	0.00274658	-0.00443115	3.50727	
5.38564	-0.71875	50.189	4.98901	0.0241089	0.000915527	-0.108337	6.01528	-0.732354	50.0711	0.876245	9.52277	-3.50749	0.00275879	-0.0071167	3.50749	
5.9937	-0.28125	49.1896	4.98901	0.0231934	0.00213623	-0.0222778	6.01498	-0.731942	50.071	0.876243	9.52278	-3.5078	0.00273437	-0.0067627	3.5078	
7.29668	-0.1875	50.5292	4.99054	0.0234985	0.00335693	0.0265503	6.01479	-0.731317	50.0708	0.876239	9.52283	-3.50804	0.0027832	-0.00358887	3.50804	
7.51384	-0.125	50.4441	4.98505	0.0253296	0.00274658	0.0588989	6.01523	-0.730382	50.0706	0.876235	9.52287	-3.50764	0.00270996	0.00217285	3.50764	
5.8634	-1.84375	49.8275	4.97589	0.0268555	0.00213623	0.0186157	6.0163	-0.72938	50.0706	0.876235	9.52288	-3.50658	0.00263672	0.00299072	3.50658	
5.47251	-1.28125	49.9445	4.99878	0.0247192	0.00305176	-0.104675	6.01743	-0.728751	50.0705	0.876234	9.52289	-3.50546	0.00290527	-0.00150146	3.50546	
4.86445	2.96875	50.0508	4.99725	0.0259399	0.00457764	0.071106	6.01815	-0.727914	50.0703	0.876231	9.52292	-3.50477	0.00300293	0.0024292	3.50477	
5.16848	-1.53125	50.1784	4.99634	0.0253296	0.00274658	-0.00946045	6.01827	-0.72617	50.0702	0.876228	9.52295	-3.50468	0.00286865	0.00218506	3.50468	
6.16743	-1.125	49.5511	4.99603	0.0259399	0.00183105	0.00518799	6.01797	-0.724226	50.07	0.876225	9.52299	-3.50502	0.00280762	0.00117188	3.50502	
6.16743	-0.375	50.0614	4.97589	0.0274658	0.00152588	-0.0228882	6.01761	-0.722544	50.0697	0.876219	9.52306	-3.50544	0.00279541	-0.00224609	3.50544	
6.2543	-0.90625	50.1465	4.98932	0.0234985	0.00549316	0.0500488	6.01738	-0.720905	50.0693	0.876212	9.52313	-3.50576	0.00285645	-0.00128174	3.50576	
6.55833	-1.34375	49.9338	4.99542	0.0292969	0.00396729	0.0357056	6.01733	-0.719423	50.0689	0.876206	9.52321	-3.50588	0.00283203	0.000378418	3.50588	
4.90789	-2.71875	49.9551	4.99237	0.0280762	0.00183105	-0.0189209	6.01732	-0.718526	50.0685	0.876199	9.52329	-3.50597	0.00274658	0.000646973	3.50597	
5.51594	-3.40625	49.9764	4.9939	0.0259399	0.00274658	0.0088501	6.01697	-0.718795	50.068	0.87619	9.52339	-3.50642	0.002771	0.000524902	3.50642	
6.86235	-0.21875	50.3166	4.96765	0.0241089	0.00213623	0.00152588	6.01643	-0.720121	50.0676	0.876182	9.52348	-3.50705	0.0026123	1.2207E-005	3.50705	
7.68757	-0.4375	50.2634	4.98505	0.0250244	0.00305176	-0.0332642	6.01636	-0.721618	50.0672	0.876176	9.52355	-3.50719	0.00264893	0.00192871	3.50719	
7.60071	-1.21875	51.1139	4.98505	0.0259399	0.00396729	0.00762939	6.01719	-0.722974	50.0671	0.876175	9.52356	-3.50638	0.00274658	0.00418701	3.50638	
6.16743	-0.625	50.3804	4.98749	0.0259399	0.0012207	-0.0570679	6.01876	-0.724377	50.0675	0.876181	9.5235	-3.50474	0.00267334	0.00125732	3.50474	
7.47041	-1.21875	50.1252	4.98749	0.0259399	0.00854492	-0.00396729	6.02079	-0.725853	50.0681	0.876191	9.52338	-3.50259	0.00286865	0.000402832	3.50259	
-1.17268	-1.46875	50.189	4.98505	0.0253296	0.00213623	0.017395	6.02211	-0.727531	50.0687	0.876203	9.52325	-3.50114	0.00284424	0.000158691	3.50114	
6.08057	-0.625	50.1677	4.98169	0.0241089	0.00152588	-0.00457764	6.02138	-0.72944	50.0694	0.876215	9.52311	-3.50173	0.00299072	-0.000109863	3.50173	
6.86235	3.28125	50.4654	4.98688	0.020752	0.00213623	-0.0442505	6.01971	-0.730742	50.0702	0.876228	9.52295	-3.50324	0.00294189	-0.0038208	3.50324	
7.68757	-0.0625	50.4654	4.97955	0.0241089	0.00427246	-0.0354004	6.01863	-0.730634	50.0711	0.876245	9.52276	-3.50413	0.00303955	-0.00715332	3.50413	
7.34011	-0.46875	50.5717	4.98077	0.0265503	0.00427246	0.00396729	6.01844	-0.72966	50.0723	0.876266	9.52253	-3.50408	0.00303955	-0.00778809	3.50408	
5.38564	-1.84375	49.785	4.9884	0.0274658	0.00457764	0.057373	6.01883	-0.728707	50.0736	0.876288	9.52227	-3.50343	0.00307617	-0.00408936	3.50343	
5.9937	-2	50.0189	4.98657	0.0271606	0.00183105	0.0241089	6.01921	-0.728291	50.0749	0.87631	9.52202	-3.5028	0.00311279	0.0012085	3.5028	
2.47566	-1.28125	49.8382	4.98444	0.0253296	0.0012207	0.0524902	6.01892	-0.728543	50.076	0.876329	9.5218	-3.50287	0.00307617	0.00419922	3.50287	
7.90474	-0.84375	50.0933	4.98932	0.0259399	0.00183105	0.0332642	6.01783	-0.729173	50.0769	0.876347	9.5216	-3.50377	0.00301514	0.00446777	3.50377	
6.94922	0.71875	50.1252	4.98077	0.0256348	0.00335693	0.0405884	6.01696	-0.729677	50.0779	0.876363	9.52142	-3.50446	0.00303955	0.00373535	3.50446	
5.29878	-1.28125	50.0189	4.98657	0.0259399	0.00152588	-0.0588989	6.01659	-0.729818	50.0788	0.876378	9.52124	-3.50465	0.00301514	0.000634766	3.50465	
6.47146	-0.96875	50.1252	4.98322	0.0265503	0.00427246	0.00396729	6.01623	-0.729937	50.0796	0.876394	9.52106	-3.50484	0.00306396	0.00498047	3.50484	
6.08057	-0.90625	50.7206	4.97955	0.0283813	0.00213623	0.0100708	6.01591	-0.730239	50.0806	0.87641	9.52088	-3.50496	0.00296631	0.00253906	3.50496	
5.68967	-1.375	49.8488	4.98199	0.0256348	0.00213623	-0.0814819	6.01565	-0.730722	50.0816	0.876429	9.52066	-3.50501	0.00294189	-0.000341797	3.50501	
4.29983	-1.65625	49.9338	4.98169	0.0247192	0.00549316	-0.0228882	6.01504	-0.731559	50.0827	0.876447	9.52045	-3.50541	0.00308838	-0.00146484	3.50541	
7.07952	-0.03125	50.4335	4.98871	0.0222778	0.00457764	0.0558472	6.01404	-0.732645	50.0837	0.876464	9.52026	-3.50622	0.00321045	0.00168457	3.50622	
7.90474	0.90625	50.1465	4.97589	0.0256348	0.00396729	0.0595093	6.01342	-0.733364	50.0847	0.876482	9.52005	-3.50663	0.00314941	0.00206299	3.50663	
7.38354	0.28125	50.3166	4.97284	0.0222778	0.00213623	0.00793457	6.0138	-0.733283	50.0858	0.876502	9.51983	-3.50603	0.00307617	0.000952148	3.50603	
6.60176	-0.59375	50.0402	4.97437	0.0244141	0.0012207	-0.0241089	6.01497	-0.732614	50.0869	0.876522	9.5196	-3.50463	0.00305176	0.000744629	3.50463	
6.42803	-0.5625	50.2634	4.97314	0.0268555	0.00366211	0.0515747	6.01656	-0.731742	50.0881	0.876542	9.51937	-3.50281	0.00308838	0.00245361	3.50281	
7.03608	-0.3125	48.6793	4.97345	0.0271606	0.00213623	-0.0338745	6.01846	-0.730761	50.089	0.876558	9.51918	-3.50072	0.00308838	0.0010376	3.50072	
6.55833	-0.375	50.1252	4.9765	0.0228882	0.00549316	-0.0253296	6.02077	-0.729603	50.0895	0.876567	9.51908	-3.49831	0.00318604	0.00135498	3.49831	
6.51489	0.03125	50.1252	4.97131	0.0234985	0.00366211	-0.0106812	6.0234	-0.728193	50.0898	0.876572	9.51902	-3.49563	0.00317383	0.000622559	3.49563	
15.2014	0.1875	50.2315	4.97192	0.0265503	0.00274658	-0.0271606	6.02759	-0.7264	50.0901	0.876577	9.51896	-3.49137	0.00323486	0.00181885	3.49137	
7.20981	1.21875	50.4654	4.96582	0.0253296	0.00274658	0.0109863	6.03474	-0.723966	50.0905	0.876585	9.51888	-3.48414	0.00300293	0.00241699	3.48414	
5.81997	-0.84375	49.7318	4.97437	0.0256348	0.00305176	0.0900269	6.0434	-0.720892	50.091	0.876593	9.51878	-3.47538	0.00303955	0.00532227	3.47538	
5.16848	-0.6875	49.7425	4.97955	0.0259399	0.00152588	-0.0335693	6.05173	-0.717657	50.0914	0.876599	9.51871	-3.46698	0.00303955	0.0041626	3.46698	
5.55938	-1.53125	49.9019	4.97345	0.0268555	0.00274658	-0.0259399	6.05938	-0.714671	50.0915	0.876602	9.51868	-3.4593	0.00306396	0.00489502	3.4593	
6.124	-0.96875	46.6487	4.97681	0.0247192	0.00396729	0.0012207	6.06648	-0.712079	50.091	0.876593	9.51878	-3.4523	0.00305176	0.00635986	3.4523	
5.64624	-0.875	49.987	4.97131	0.0253296	0.0012207	-0.100403	6.07321	-0.709808	50.0894	0.876565	9.5191	-3.44589	0.00292969	0.00218506	3.44589	
12.6823	-0.21875	49.9232	4.97192	0.0265503	0.00213623	-0.0161743	6.08061	-0.707633	50.0873	0.876527	9.51953	-3.43893	0.00283203	-0.000756836	3.43893	
6.38459	-0.6875	50.1465	4.98688	0.0259399	-0.000305176	0.010376	6.08977	-0.705404	50.0852	0.87649	9.51996	-3.43019	0.00274658	-0.00130615	3.43019	
6.42803	-5.96875	50.1465	4.97345	0.0259399	0.00213623	0.0234985	6.09978	-0.703989	50.0831	0.876455	9.52036	-3.42058	0.0027832	-0.00246582	3.42058	
5.16848	-1.1875	49.6787	4.98077	0.0256348	0.00274658	0.0231934	6.10944	-0.70433	50.0811	0.87642	9.52077	-3.41132	0.00281982	-0.00286865	3.41132	
6.86235	-0.96875	49.498	4.97955	0.0265503	0.00457764	0.0683594	6.11864	-0.705666	50.079	0.876382	9.52119	-3.40255	0.00286865	-0.00175781	3.40255	
6.99265	-0.59375	49.1046	4.97101	0.0262451	0.00457764	-0.0131226	6.12774	-0.707095	50.0765	0.876339	9.52169	-3.39395	0.00299072	7.32422E-005	3.39395	
7.38354	-0.03125	50.3591	4.9707	0.0219727	0.00335693	-0.06073	6.1371	-0.708374	50.0738	0.876292	9.52223	-3.38513	0.0029541	-0.00251465	3.38513	
7.47041	0.28125	50.2315	4.97101	0.0234985	0.00213623	0.00274658	6.14685	-0.709227	50.0711	0.876245	9.52276	-3.37591	0.0029541	-0.00280762	3.37591	
5.9937	-0.40625	50.2103	4.98322	0.0265503	0.00335693	0.00518799	6.15685	-0.709591	50.0687	0.876202	9.52325	-3.36641	0.00300293	0.00065918	3.36641	
8.2522	-1.09375	49.8382	4.97955	0.0265503	0.00213623	-0.0650024	6.16697	-0.709754	50.0664	0.876161	9.52372	-3.35675	0.00286865	-0.00102539	3.35675	
7.12295	1.21875	50.0827	4.97925	0.0256348	0.00457764	0.0158691	6.17751	-0.709684	50.0641	0.876121	9.52418	-3.34667	0.00286865	-0.00262451	3.34667	
5.81997	-0.71875	50.0189	4.97711	0.0247192	0.00274658	0.00946045	6.18824	-0.709079	50.0618	0.876082	9.52463	-3.33639	0.00281982	-0.00462646	3.33639	
6.21086	-0.625	49.987	4.97467	0.0247192	0.00213623	0.0527954	6.19863	-0.708186	50.0596	0.876043	9.52507	-3.32644	0.00281982	-0.00283203	3.32644	
7.55728	1.1875	47.3398	4.97467	0.0231934	0.00396729	0.0393677	6.20881	-0.707006	50.057	0.875998	9.52558	-3.31677	0.00292969	-0.000292969	3.31677	
7.29668	-0.09375	50.2315	4.97192	0.0256348	-0.00366211	0.0421143	6.21922	-0.705172	50.0537	0.87594	9.52625	-3.30702	0.00263672	-0.000671387	3.30702	
7.25325	-0.84375	49.9551	4.98566	0.0280762	0.00427246	0.0457764	6.22998	-0.702939	50.0502	0.875878	9.52696	-3.29698	0.00272217	0.00251465	3.29698	
4.34326	-2.28125	49.7531	4.98993	0.0271606	0.00213623	0.00457764	6.24055	-0.700979	50.0467	0.875817	9.52766	-3.28711	0.00258789	0.00371094	3.28711	
5.12505	-1.21875	49.9764	4.99207	0.0256348	0.00274658	0.0164795	6.25014	-0.69968	50.0432	0.875755	9.52836	-3.27822	0.00255127	0.00479736	3.27822	
4.95132	-0.875	50.1571	4.9881	0.0244141	0.0012207	0.0189209	6.25855	-0.69886	50.0398	0.875696	9.52904	-3.27049	0.00249023	0.00664062	3.27049	
6.68862	-1.28125	49.7637	4.98566	0.0265503	0.00427246	0.00213623	6.26616	-0.698294	50.0364	0.875638	9.5297	-3.26355	0.00255127	0.00628662	3.26355	
5.8634	-0.53125	50.3378	4.98749	0.0265503	0.00274658	-0.072937	6.27336	-0.697931	50.0332	0.875581	9.53035	-3.25699	0.00253906	-0.000231934	3.25699	
6.29773	-0.90625	49.7637	4.98108	0.0283813	0.00366211	0.000305176	6.28025	-0.697651	50.0301	0.875527	9.53096	-3.25071	0.00262451	0.00112305	3.25071	
6.16743	-0.96875	49.9338	4.98688	0.0259399	-0.00213623	0.00610352	6.28683	-0.697462	50.0271	0.875474	9.53157	-3.24474	0.0024292	0.00240479	3.24474	
-2.56252	-1.28125	49.7425	4.99176	0.0262451	0.00366211	-0.0198364	6.29176	-0.697487	50.024	0.875421	9.53218	-3.24042	0.00241699	0.0015625	3.24042	
4.95132	-2.09375	49.8488	4.9939	0.0274658	0.00366211	-0.0817871	6.29355	-0.697951	50.021	0.875367	9.53279	-3.23924	0.00251465	0.00230713	3.23924	
6.77549	3.78125	50.3166	4.98505	0.0210571	0.00213623	-0.057373	6.29357	-0.698227	50.018	0.875314	9.53339	-3.23983	0.00251465	0.00065918	3.23983	
7.94817	-0.28125	50.1252	4.96857	0.0228882	0.00396729	0.00396729	6.29378	-0.697255	50.0151	0.875265	9.53396	-3.24018	0.00268555	0.000402832	3.24018	
7.20981	-0.03125	50.6143	4.98932	0.0247192	0.00335693	-0.00701904	6.29471	-0.69539	50.0126	0.87522	9.53447	-3.23976	0.00273437	-0.000817871	3.23976	
5.9937	-0.71875	52.5492	4.99054	0.0271606	0.00274658	0.0521851	6.2961	-0.693324	50.0107	0.875188	9.53484	-3.23874	0.00273437	0.000341797	3.23874	
5.9937	-0.53125	50.2315	4.99146	0.0247192	-0.000305176	0.0662231	6.29745	-0.69121	50.0099	0.875172	9.53502	-3.23757	0.00253906	0.000256348	3.23757	
3.47461	-0.96875	50.1252	4.99023	0.0241089	0.00152588	0.0100708	6.29817	-0.689167	50.0095	0.875166	9.53509	-3.23692	0.00241699	0.00118408	3.23692	
5.38564	-0.40625	50.2422	4.98901	0.0241089	0.00366211	-0.00762939	6.2978	-0.687214	50.0092	0.875162	9.53514	-3.23735	0.0024292	0.00330811	3.23735	
5.95027	-0.78125	50.4335	4.98779	0.0231934	0.0012207	0.00762939	6.29666	-0.6853	50.0091	0.87516	9.53516	-3.2385	0.00239258	0.00350342	3.2385	
6.90579	-0.34375	50.4867	4.98566	0.0244141	0.00457764	0.020752	6.29542	-0.683387	50.0093	0.875163	9.53513	-3.23971	0.00244141	0.00412598	3.23971	
7.51384	0.15625	50.4229	4.98688	0.0210571	0.00213623	0.0140381	6.29454	-0.681319	50.0097	0.87517	9.53504	-3.2405	0.00244141	0.0072876	3.2405	
6.77549	-1.28125	50.4441	4.99237	0.0265503	0.00213623	-0.0457764	6.29424	-0.679105	50.0104	0.875182	9.5349	-3.24067	0.00234375	0.00482178	3.24067	
5.81997	-2.125	49.785	4.99603	0.0265503	-0.00305176	0.00640869	6.29421	-0.67725	50.0113	0.875197	9.53474	-3.24053	0.00211182	0.00469971	3.24053	
5.47251	-0.875	49.8913	4.9942	0.0241089	-0.00366211	-0.0247192	6.29399	-0.676033	50.012	0.87521	9.53458	-3.2406	0.00187988	0.00159912	3.2406	
1.52014	-1.46875	50.1571	4.99237	0.027771	0.00335693	-0.00732422	6.2927	-0.675269	50.0127	0.875223	9.53444	-3.24174	0.00185547	-0.000268555	3.24174	
5.8634	0.15625	50.2103	4.99451	0.0259399	0.00152588	-0.0787354	6.28979	-0.674679	50.0135	0.875235	9.5343	-3.24451	0.00206299	-0.00510254	3.24451	
5.16848	3.8125	50.2103	4.99207	0.0250244	0.00335693	-0.0344849	6.28593	-0.673279	50.0143	0.87525	9.53413	-3.24821	0.00202637	-0.00831299	3.24821	
5.95027	-5.46875	50.2209	4.99054	0.0228882	0.00213623	-0.0128174	6.28174	-0.671151	50.0152	0.875266	9.53395	-3.25221	0.00202637	-0.00900879	3.25221	
5.47251	-1.46875	50.1252	4.99664	0.0283813	0.00335693	0.0231934	6.27729	-0.670014	50.0162	0.875283	9.53375	-3.25646	0.00205078	-0.00874023	3.25646	
4.95132	-1.28125	49.094	4.99725	0.0283813	0.00305176	0.0393677	6.2725	-0.670005	50.0171	0.875299	9.53358	-3.26108	0.00212402	-0.00792236	3.26108	
4.99475	-1.59375	49.8807	4.9942	0.0228882	0.00549316	0.0271606	6.26714	-0.670452	50.0176	0.875308	9.53347	-3.26633	0.00217285	-0.00692139	3.26633	
6.16743	-0.21875	50.189	4.98871	0.0222778	0.000305176	0.0411987	6.26135	-0.671195	50.018	0.875315	9.53339	-3.27204	0.0020752	-0.00235596	3.27204	
14.159	0.21875	50.3485	4.98688	0.0259399	0.00457764	0.0247192	6.25677	-0.671777	50.0184	0.875323	9.5333	-3.27653	0.00211182	-0.00137939	3.27653	
7.03608	0.40625	50.3485	4.98871	0.0256348	0.00396729	0.00701904	6.2549	-0.671824	50.0191	0.875334	9.53318	-3.27828	0.00235596	-0.00134277	3.27828	
6.2543	-0.875	50.3166	4.98749	0.0262451	0.00152588	0.0369263	6.25457	-0.671429	50.0199	0.875347	9.53302	-3.27845	0.00227051	0.000927734	3.27845	
6.55833	1.4375	50.0189	4.97955	0.0247192	0.00274658	0.0222778	6.25442	-0.670616	50.0208	0.875363	9.53284	-3.27842	0.00223389	0.00509033	3.27842	
7.03608	-0.1875	49.785	4.98749	0.0250244	0.00305176	-0.012207	6.25448	-0.669135	50.0216	0.875379	9.53266	-3.27818	0.00227051	0.00689697	3.27818	
6.68862	-0.78125	47.2122	4.98932	0.0259399	0.00488281	-0.0405884	6.25491	-0.667246	50.022	0.875385	9.53259	-3.27768	0.00230713	0.00511475	3.27768	
6.124	-0.625	50.1252	4.98413	0.022583	0.00640869	0.0448608	6.25555	-0.665377	50.0214	0.875375	9.5327	-3.27715	0.0024292	0.00718994	3.27715	
11.4228	0.09375	50.5611	4.98077	0.0234985	0.00152588	0.0088501	6.257	-0.663462	50.0206	0.87536	9.53288	-3.27588	0.00238037	0.00545654	3.27588	
6.68862	-0.21875	50.2103	4.97955	0.0247192	0.00488281	-0.00518799	6.26005	-0.661303	50.0199	0.875349	9.533	-3.27295	0.00258789	0.0026001	3.27295	
6.16743	-7.28125	49.7956	4.98688	0.0265503	0.0012207	-0.0338745	6.26391	-0.659993	50.0195	0.875341	9.5331	-3.26919	0.00257568	0.000842285	3.26919	
6.2543	-2.03125	49.8275	4.98932	0.0256348	0.00274658	-0.0247192	6.26767	-0.660927	50.0189	0.875331	9.53321	-3.26554	0.00253906	0.000158691	3.26554	
6.29773	-0.875	50.0614	4.98627	0.027771	0.00213623	-0.00518799	6.27128	-0.663314	50.0183	0.87532	9.53333	-3.26204	0.00257568	-0.000354004	3.26204	
6.16743	-0.71875	49.3278	4.98535	0.0253296	0.00274658	0.017395	6.27476	-0.665904	50.0176	0.875308	9.53347	-3.25871	0.00250244	-0.000488281	3.25871	
6.42803	-1.125	50.3378	4.98932	0.0234985	0.00396729	-0.0494385	6.27811	-0.668523	50.0168	0.875293	9.53364	-3.25553	0.00257568	-0.00302734	3.25553	
7.64414	-0.34375	50.1677	4.98077	0.0256348	0.00366211	-0.027771	6.28159	-0.671151	50.016	0.875279	9.5338	-3.25221	0.00263672	-0.00230713	3.25221	
15.7226	-0.46875	50.1039	4.9942	0.0265503	0.00274658	-0.00701904	6.28685	-0.673624	50.0153	0.875268	9.53393	-3.24708	0.00286865	-0.00284424	3.24708	
5.68967	-2.28125	49.9338	4.98138	0.0280762	0.00152588	0.0195313	6.29498	-0.676145	50.0147	0.875257	9.53405	-3.23907	0.00307617	-0.00107422	3.23907	
4.95132	-1.59375	49.8807	4.99725	0.0265503	0.00274658	0.0289917	6.30388	-0.679186	50.0141	0.875247	9.53417	-3.23029	0.00305176	0.000378418	3.23029	
5.64624	-1.25	50.0189	4.9826	0.0250244	0.00305176	0.0753784	6.31186	-0.682742	50.0135	0.875235	9.5343	-3.22244	0.00311279	0.00654297	3.22244	
8.3825	-0.21875	49.785	4.97681	0.0265503	0.00305176	-0.0265503	6.31947	-0.68642	50.0128	0.875224	9.53443	-3.21497	0.00310059	0.00686035	3.21497	
7.8613	0.21875	51.89	4.96979	0.0253296	0.00396729	0.0234985	6.32758	-0.68977	50.0123	0.875216	9.53452	-3.20694	0.00317383	0.00831299	3.20694	
6.60176	-0.46875	49.8488	4.99237	0.0250244	0.00305176	-0.0723267	6.33625	-0.692615	50.0125	0.875218	9.5345	-3.19825	0.00316162	0.00449219	3.19825	
6.73206	-0.28125	50.3166	4.97314	0.027771	0.00213623	-0.0183105	6.345	-0.695085	50.0129	0.875225	9.53442	-3.18942	0.003125	0.00218506	3.18942	
6.90579	-0.46875	49.9551	4.97131	0.0259399	0.00213623	0.00152588	6.35368	-0.697271	50.0133	0.875233	9.53433	-3.18065	0.00299072	0.00115967	3.18065	
6.73206	-2.125	50.1571	4.97742	0.0250244	0.00335693	0.0234985	6.36236	-0.699466	50.0138	0.875241	9.53424	-3.17188	0.00311279	0.00045166	3.17188	
7.38354	-0.15625	50.2103	4.98169	0.0244141	0.00457764	0.0906372	6.37108	-0.701907	50.0143	0.87525	9.53413	-3.16305	0.00311279	0.00308838	3.16305	
7.29668	-3.78125	50.1039	4.99237	0.0234985	0.00457764	0.0543213	6.38002	-0.704792	50.0149	0.875261	9.53401	-3.15399	0.00313721	0.00498047	3.15399	
8.1219	0.59375	50.4016	4.96979	0.0259399	0.00335693	-0.0759888	6.38935	-0.708244	50.0156	0.875273	9.53387	-3.14452	0.00321045	0.000463867	3.14452	
7.38354	-0.09375	50.1252	4.96857	0.0247192	0.000305176	-0.0418091	6.39919	-0.711553	50.0164	0.875287	9.53371	-3.13451	0.00311279	-0.00209961	3.13451	
7.12295	-0.84375	49.6999	4.97467	0.0250244	0.00274658	-0.0378418	6.40938	-0.714372	50.0173	0.875302	9.53354	-3.12416	0.00310059	-0.003125	3.12416	
-3.25745	-1.09375	49.8913	4.97864	0.0280762	0.00305176	-0.0106812	6.41808	-0.717096	50.018	0.875314	9.5334	-3.11532	0.00302734	-0.00192871	3.11532	
6.16743	-1.46875	50.1252	4.9942	0.0274658	0.00274658	0.00274658	6.42354	-0.719978	50.0186	0.875325	9.53327	-3.10973	0.00288086	-0.00361328	3.10973	
5.9937	3.15625	49.9764	4.97589	0.0234985	0.00152588	-0.0344849	6.42716	-0.722449	50.0192	0.875336	9.53315	-3.10599	0.00288086	-0.00534668	3.10599	
6.60176	-0.53125	49.9764	4.97314	0.0234985	0.00427246	-0.0198364	6.43052	-0.723715	50.0198	0.875346	9.53304	-3.10252	0.00285645	-0.00593262	3.10252	
5.95027	-1.1875	49.9551	4.97437	0.0271606	0.00274658	-0.0012207	6.43366	-0.724348	50.0203	0.875355	9.53293	-3.09927	0.00291748	-0.00462646	3.09927	
6.21086	-0.9375	51.1777	4.97711	0.0265503	0.00152588	0.0222778	6.43654	-0.725105	50.0209	0.875366	9.5328	-3.09627	0.00286865	-0.00274658	3.09627	
7.12295	-1.28125	49.8913	4.97711	0.0283813	0.00274658	0.0479126	6.43927	-0.72606	50.0219	0.875383	9.53261	-3.09334	0.00289307	-0.000622559	3.09334	
2.86655	-1.21875	49.785	4.98016	0.0250244	0.00427246	0.0302124	6.44154	-0.727263	50.0229	0.875401	9.5324	-3.09087	0.0029541	-0.000109863	3.09087	
-11.5531	-1.9375	49.6149	4.96307	0.0274658	0.00366211	-0.0125122	6.43993	-0.72885	50.0238	0.875416	9.53223	-3.09231	0.00294189	0.00136719	3.09231	
6.08057	1.40625	50.072	4.96887	0.0253296	0.00213623	0.0320435	6.43218	-0.730502	50.0244	0.875428	9.5321	-3.09993	0.00288086	0.00375977	3.09993	
7.64414	0.15625	50.2315	4.96613	0.0250244	0.00457764	-0.00610352	6.42199	-0.731482	50.025	0.875438	9.53198	-3.10999	0.0029541	0.00379639	3.10999	
5.8634	-0.40625	49.8488	4.96948	0.0228882	0.00213623	-0.0466919	6.4124	-0.731771	50.0257	0.875449	9.53185	-3.11946	0.00297852	0.00114746	3.11946	
6.55833	-0.21875	50.4016	4.97314	0.0265503	0.000305176	0.0390625	6.40318	-0.731731	50.0263	0.875461	9.53172	-3.12854	0.00288086	0.00155029	3.12854	
6.77549	-0.1875	49.9338	4.97284	0.0247192	0.00335693	0.0894165	6.39431	-0.731399	50.027	0.875473	9.53158	-3.13727	0.00289307	0.00211182	3.13727	
5.03818	-0.875	49.8488	4.97711	0.0247192	0.00640869	-0.0424194	6.38568	-0.730852	50.0277	0.875485	9.53145	-3.14577	0.00302734	0.00147705	3.14577	
0.17373	-0.09375	49.9976	4.96857	0.0271606	0.00183105	-0.00610352	6.37603	-0.730185	50.0283	0.875495	9.53133	-3.1553	0.00294189	0.000292969	3.1553	
7.03608	0.46875	50.1039	4.9765	0.0241089	0.00457764	-0.0112915	6.36469	-0.729181	50.0288	0.875504	9.53123	-3.16653	0.00300293	0.00273437	3.16653	
7.42698	4.59375	50.2315	4.97284	0.0247192	0.00213623	-0.0317383	6.35316	-0.726916	50.0294	0.875514	9.53111	-3.17795	0.00300293	0.00219727	3.17795	
6.94922	0.21875	50.0295	4.96948	0.0250244	0.00152588	-0.0717163	6.34256	-0.722747	50.03	0.875525	9.53099	-3.18843	0.00297852	-0.000732422	3.18843	
4.77759	-1.09375	50.189	4.98322	0.0256348	0.00335693	-0.0335693	6.33245	-0.717664	50.0307	0.875537	9.53086	-3.19841	0.00297852	-0.00301514	3.19841	
5.16848	-1.375	49.9019	4.98108	0.0271606	0.00274658	0.0622559	6.32212	-0.712832	50.0313	0.875548	9.53073	-3.2086	0.00290527	-0.00415039	3.2086	
5.21191	-1	50.0295	4.97955	0.0228882	0.00518799	0.0628662	6.31138	-0.708478	50.0319	0.875559	9.5306	-3.21922	0.00292969	-0.00380859	3.21922	
5.9937	-0.78125	50.0614	4.98077	0.0244141	0.00274658	0.0466919	6.30045	-0.704481	50.0325	0.875569	9.53048	-3.23003	0.00290527	0.00109863	3.23003	
16.3741	-0.40625	50.0402	4.97589	0.0262451	0.00396729	0.0115967	6.2912	-0.700647	50.0331	0.875579	9.53037	-3.23917	0.00305176	0.00323486	3.23917	
6.73206	1.15625	49.9126	4.9823	0.0241089	0.00305176	-0.00518799	6.28543	-0.69658	50.0336	0.875589	9.53026	-3.24483	0.00306396	0.00454102	3.24483	
5.95027	-0.96875	49.9657	4.97925	0.0247192	0.0012207	-0.00762939	6.28151	-0.692077	50.0341	0.875597	9.53017	-3.24866	0.00299072	0.00466309	3.24866	
6.2543	-1.34375	49.7212	4.98169	0.0280762	0.00305176	-0.00366211	6.27769	-0.687632	50.0345	0.875603	9.53009	-3.25241	0.00300293	0.00440674	3.25241	
4.95132	-1.21875	50.189	4.98749	0.0265503	0.00274658	-0.0106812	6.27373	-0.683672	50.0348	0.875608	9.53004	-3.25631	0.00305176	0.00535889	3.25631	
5.64624	-0.84375	49.5192	4.98779	0.0265503	0.00213623	-0.0976563	6.26941	-0.680143	50.0349	0.875611	9.53	-3.26059	0.00296631	0.00224609	3.26059	
5.9937	-0.53125	50.3591	4.98077	0.0256348	0.00823975	-0.0445557	6.26479	-0.676849	50.035	0.875613	9.52998	-3.26519	0.00318604	0.000512695	3.26519	
9.9895	-0.15625	50.2209	4.97498	0.0222778	0.00305176	0.0289917	6.26074	-0.673569	50.0352	0.875615	9.52996	-3.26922	0.00324707	0.00078125	3.26922	
7.64414	-0.03125	50.2103	4.98688	0.0247192	0.00274658	0.0280762	6.25815	-0.670122	50.0354	0.87562	9.5299	-3.27175	0.00324707	-1.2207E-005	3.27175	
6.21086	-6.34375	50.0508	4.98749	0.0271606	0.00274658	-0.0296021	6.25666	-0.667398	50.0358	0.875626	9.52984	-3.27317	0.00318604	-0.00240479	3.27317	
6.03713	-0.84375	50.0933	4.98596	0.0234985	0.00213623	-0.00427246	6.25539	-0.666458	50.0361	0.875633	9.52976	-3.27437	0.003125	-0.0020752	3.27437	
6.21086	-0.53125	50.2209	4.98871	0.027771	0.00488281	0.0299072	6.25408	-0.666467	50.0366	0.87564	9.52968	-3.2756	0.00323486	-0.00216064	3.2756	
5.81997	-0.5625	49.0089	4.98566	0.0262451	0.00213623	-0.0012207	6.2527	-0.666444	50.0369	0.875645	9.52962	-3.27692	0.00313721	-0.00196533	3.27692	
5.9937	-0.53125	50.2953	4.98413	0.0241089	0.00213623	-0.0180054	6.25119	-0.666348	50.0369	0.875646	9.52961	-3.27842	0.00313721	-0.000817871	3.27842	
8.2522	0.09375	50.4016	4.98688	0.0231934	0.00274658	-0.0524902	6.24989	-0.66608	50.0369	0.875646	9.52961	-3.27972	0.00323486	-0.00447998	3.27972	
16.6781	-0.59375	50.3804	4.99359	0.0253296	0.00396729	-0.00762939	6.25084	-0.665553	50.0371	0.87565	9.52957	-3.27872	0.00325928	-0.00836182	3.27872	
4.43013	-2.84375	50.0189	4.99023	0.0265503	0.0012207	0.0296021	6.25502	-0.665242	50.0375	0.875656	9.52949	-3.27447	0.00305176	-0.00548096	3.27447	
6.16743	-4.53125	49.6787	4.99847	0.0262451	0.00396729	0.0302124	6.2601	-0.666207	50.0379	0.875662	9.52942	-3.26932	0.00313721	-0.00402832	3.26932	
4.86445	-1.375	49.9976	4.99451	0.0250244	0.00366211	-0.0369263	6.26446	-0.668785	50.0381	0.875666	9.52938	-3.26492	0.00310059	-0.00505371	3.26492	
5.38564	-1.15625	50.1784	4.99542	0.0256348	0.00213623	0.00823975	6.26809	-0.672167	50.0382	0.875669	9.52934	-3.26126	0.00310059	-0.00345459	3.26126	
4.47356	-1.09375	49.8913	4.99451	0.0256348	0.00183105	-0.0137329	6.27082	-0.675756	50.0384	0.875672	9.52931	-3.25849	0.00311279	-0.00113525	3.25849	
5.8634	-1.21875	49.9976	4.99237	0.0268555	-0.00213623	0.0436401	6.27269	-0.679508	50.0385	0.875675	9.52928	-3.25659	0.00289307	0.00195313	3.25659	
8.99055	-1.21875	50.0189	4.98871	0.0256348	0.00213623	0.0302124	6.27452	-0.683444	50.0386	0.875676	9.52926	-3.25474	0.00286865	0.000671387	3.25474	
5.73311	-2.21875	50.0189	5.00153	0.0280762	0.00610352	0.0250244	6.27698	-0.68773	50.0387	0.875677	9.52925	-3.25227	0.00290527	-0.000842285	3.25227	
5.25535	-3.1875	49.8063	4.99664	0.0265503	0.00396729	0.0418091	6.27944	-0.692812	50.0387	0.875678	9.52924	-3.2498	0.0029541	-0.0010376	3.2498	
5.16848	-1.65625	49.8275	4.99725	0.0247192	0.00274658	0.0439453	6.28125	-0.698876	50.0387	0.875677	9.52926	-3.24801	0.00290527	0.000256348	3.24801	
6.42803	-0.78125	50.2953	4.98749	0.0268555	0.00274658	-0.00213623	6.28251	-0.705425	50.0385	0.875674	9.52929	-3.24678	0.00289307	0.000378418	3.24678	
7.90474	0.03125	50.6355	4.98749	0.0259399	0.00518799	-0.0228882	6.28385	-0.711801	50.0385	0.875674	9.52929	-3.24544	0.00305176	-0.000231934	3.24544	
6.90579	-0.78125	50.1465	4.99176	0.0247192	0.00213623	0.0149536	6.28576	-0.717746	50.0388	0.875678	9.52924	-3.24347	0.00301514	0.000512695	3.24347	
7.51384	-0.78125	50.4973	4.99176	0.0256348	0.0012207	-0.0326538	6.28825	-0.723397	50.0392	0.875686	9.52915	-3.2409	0.0029541	-0.000366211	3.2409	
-3.60491	-0.9375	50.1571	4.99298	0.0262451	0.00366211	-0.0393677	6.28958	-0.72891	50.0398	0.875696	9.52903	-3.23945	0.00301514	0.00196533	3.23945	
6.51489	-2.15625	50.0402	4.99237	0.0259399	0.00335693	-0.0421143	6.28803	-0.734526	50.0405	0.875708	9.52889	-3.24087	0.00281982	0.00206299	3.24087	
6.81892	0.15625	50.0189	4.98901	0.0247192	0.00213623	-0.039978	6.28514	-0.740279	50.0412	0.87572	9.52876	-3.24362	0.0027832	-0.000695801	3.24362	
6.47146	-0.5	50.2847	4.99084	0.0222778	0.00244141	0.0296021	6.28259	-0.745736	50.0418	0.875732	9.52862	-3.24603	0.002771	-0.000634766	3.24603	
7.47041	0.21875	50.5292	4.98444	0.0259399	0.00457764	0.0497437	6.28046	-0.750636	50.0426	0.875746	9.52846	-3.24801	0.00284424	0.00253906	3.24801	
7.20981	-0.875	51.9963	4.98901	0.0253296	0.000915527	0.0134277	6.27894	-0.755045	50.0439	0.875768	9.52821	-3.24927	0.00279541	0.00324707	3.24927	
5.51594	-1.125	49.8169	4.98901	0.0238037	-0.00274658	-0.0326538	6.27782	-0.759244	50.0458	0.875801	9.52784	-3.25001	0.00249023	0.000744629	3.25001	
2.90999	-2.21875	49.8913	4.99237	0.0262451	0.00457764	-0.00274658	6.27614	-0.763653	50.0478	0.875836	9.52743	-3.2513	0.00258789	0.000683594	3.2513	
-5.73311	-1.59375	49.9657	4.98444	0.0265503	0.00244141	-0.0314331	6.27149	-0.768546	50.0496	0.875869	9.52706	-3.25558	0.0026001	0.000146484	3.25558	
5.90684	1.28125	50.1252	4.98779	0.0247192	0.0012207	-0.0717163	6.26269	-0.77343	50.0514	0.875899	9.52672	-3.26403	0.00253906	-0.000622559	3.26403	
6.60176	-1.28125	49.9551	4.9881	0.0250244	0.00396729	-0.0265503	6.25229	-0.777712	50.053	0.875928	9.52638	-3.2741	0.00253906	-0.00137939	3.2741	
6.47146	-1.46875	49.9126	4.99146	0.0247192	0.00213623	-0.00213623	6.24233	-0.781789	50.0546	0.875956	9.52607	-3.28373	0.00257568	-0.00264893	3.28373	
5.16848	-0.71875	50.3166	4.98627	0.0265503	0.00305176	0.0753784	6.23269	-0.786004	50.0561	0.875982	9.52577	-3.29308	0.00253906	-0.000842285	3.29308	
5.68967	-1.34375	49.7956	4.98932	0.027771	0.00427246	0.0759888	6.223	-0.790243	50.0576	0.876008	9.52547	-3.30247	0.00256348	0.00367432	3.30247	
4.77759	-1.875	49.9338	4.99268	0.0247192	0.00701904	0.017395	6.2131	-0.794664	50.0589	0.876032	9.5252	-3.3121	0.00275879	0.00404053	3.3121	
-0.477759	-1.96875	49.9551	4.98505	0.0250244	0.00213623	0.0131226	6.20198	-0.799532	50.0602	0.876053	9.52496	-3.32298	0.002771	0.00511475	3.32298	
7.73101	0.625	50.2634	4.97925	0.0256348	0.00335693	-0.017395	6.18919	-0.80454	50.0613	0.876073	9.52473	-3.33554	0.00299072	0.00267334	3.33554	
7.81787	-0.03125	50.4548	4.97589	0.0234985	0.000915527	0.0354004	6.17655	-0.808989	50.0625	0.876094	9.52449	-3.34794	0.00294189	0.00288086	3.34794	
7.90474	-0.15625	50.1358	4.98077	0.0238037	0.00152588	-0.0302124	6.16536	-0.812718	50.0639	0.876118	9.52422	-3.35886	0.00275879	0.000671387	3.35886	
6.68862	-0.5625	50.2634	4.98169	0.0280762	0.00427246	0.020752	6.15545	-0.815953	50.0653	0.876142	9.52394	-3.36849	0.002771	-0.000170898	3.36849	
6.68862	-1.15625	49.381	4.98199	0.0271606	0.00274658	-0.0222778	6.1464	-0.818947	50.0666	0.876165	9.52367	-3.37728	0.002771	-0.00281982	3.37728	
6.38459	-1.03125	50.0189	4.98169	0.0234985	0.00396729	-0.00274658	6.13795	-0.821934	50.0677	0.876184	9.52345	-3.38551	0.00281982	-0.00284424	3.38551	
4.60386	0	50.1784	4.98077	0.0244141	0.00518799	-0.0369263	6.12972	-0.824806	50.0686	0.876201	9.52327	-3.39354	0.00281982	-0.00340576	3.39354	
17.373	-0.125	50.3166	4.97223	0.0247192	0.00244141	-0.0411987	6.12309	-0.827245	50.0696	0.876218	9.52307	-3.39998	0.00283203	-0.00565186	3.39998	
7.68757	2.125	50.4123	4.97284	0.0262451	0.00152588	-0.045166	6.1202	-0.828795	50.0707	0.876237	9.52285	-3.40266	0.00284424	-0.00615234	3.40266	
7.64414	-0.03125	50.2209	4.97131	0.0250244	0.00396729	-0.0262451	6.11987	-0.829141	50.0719	0.876258	9.52261	-3.40274	0.00285645	-0.00562744	3.40274	
5.9937	-1.46875	50.0614	4.97711	0.0238037	0.00213623	-0.0305176	6.12024	-0.828868	50.0732	0.876281	9.52235	-3.40211	0.00280762	-0.00516357	3.40211	
5.38564	-0.875	50.3697	4.98199	0.0265503	0.00183105	0.0378418	6.12069	-0.828687	50.0745	0.876303	9.5221	-3.4014	0.00279541	-0.00205078	3.4014	
4.77759	-1.15625	47.8501	4.97681	0.0259399	0.00396729	0.108337	6.12067	-0.828677	50.0755	0.876321	9.5219	-3.40123	0.00285645	0.00109863	3.40123	
5.8634	-1.34375	50.0402	4.97864	0.0247192	0.00152588	0.0149536	6.12008	-0.828856	50.0758	0.876326	9.52184	-3.40176	0.00273437	-0.000292969	3.40176	
9.68547	-0.65625	50.0189	4.97284	0.0234985	0.00305176	0.0158691	6.11977	-0.829212	50.0757	0.876325	9.52185	-3.40208	0.00281982	-0.000195313	3.40208	
5.64624	-0.28125	50.0189	4.97467	0.0259399	0.00610352	-0.0149536	6.12047	-0.829497	50.0756	0.876323	9.52187	-3.4014	0.00317383	0.000512695	3.4014	
5.90684	-6.125	50.1252	4.97925	0.0253296	0.00152588	-0.0552368	6.12151	-0.830397	50.0755	0.876321	9.52189	-3.40038	0.00305176	-0.00158691	3.40038	
4.60386	-1.21875	49.8063	4.97467	0.0247192	0.00152588	-0.072937	6.12214	-0.832883	50.0754	0.876319	9.52192	-3.39977	0.00301514	-0.00324707	3.39977	
5.64624	-0.96875	49.6574	4.97589	0.0289917	0.00396729	-0.00701904	6.12218	-0.836244	50.0751	0.876314	9.52198	-3.3998	0.003125	-0.00065918	3.3998	
5.81997	-0.9375	48.573	4.97498	0.0259399	0.00457764	0.0521851	6.12178	-0.839604	50.0744	0.876302	9.52211	-3.40033	0.00314941	0.00249023	3.40033	
6.81892	-0.375	50.189	4.96857	0.0241089	0.00396729	-0.0192261	6.12133	-0.842825	50.0732	0.876282	9.52234	-3.40101	0.00322266	0.00180664	3.40101	
9.12085	-0.46875	50.4867	4.9823	0.0244141	0.00396729	-0.0204468	6.12154	-0.845745	50.072	0.87626	9.52259	-3.40105	0.00325928	-0.00202637	3.40105	
15.5489	0.28125	50.1677	4.97528	0.0247192	0.00396729	-0.0454712	6.12424	-0.848198	50.0709	0.876241	9.5228	-3.39856	0.00324707	-0.00688477	3.39856	
6.64519	-1.71875	50.2103	4.9704	0.0259399	0.00213623	-0.0314331	6.13032	-0.850292	50.07	0.876226	9.52298	-3.39267	0.00305176	-0.00883789	3.39267	
6.55833	-4.46875	50.0189	4.97284	0.0250244	0.00427246	0.0558472	6.13787	-0.852967	50.0692	0.876211	9.52315	-3.38528	0.00313721	-0.00712891	3.38528	
6.68862	-0.875	50.0827	4.97406	0.0247192	0.00274658	0.0524902	6.14545	-0.856809	50.0684	0.876198	9.5233	-3.37785	0.00311279	-0.0043335	3.37785	
6.124	-1.03125	49.8063	4.97711	0.0271606	0.00335693	0.0314331	6.153	-0.861109	50.0676	0.876184	9.52346	-3.37046	0.00321045	-0.00449219	3.37046	
6.99265	-0.125	49.987	4.97192	0.0292969	0.00274658	-0.000915527	6.16049	-0.865201	50.0668	0.876169	9.52363	-3.36315	0.00325928	-0.00332031	3.36315	
7.8613	0.34375	50.2953	4.96796	0.0234985	0.0012207	0.000915527	6.16823	-0.868757	50.0659	0.876154	9.5238	-3.35557	0.00313721	-0.00411377	3.35557	
10.4238	-0.3125	50.1252	4.96979	0.0256348	0.00274658	0.0360107	6.17702	-0.871612	50.0652	0.87614	9.52396	-3.34694	0.00313721	-0.00178223	3.34694	
4.86445	-1.40625	49.6999	4.96948	0.0271606	0.000915527	0.0445557	6.18687	-0.874088	50.0644	0.876128	9.5241	-3.33723	0.00301514	0.000109863	3.33723	
5.16848	-4.125	49.7637	4.97925	0.0253296	0.00488281	-0.00213623	6.19647	-0.87706	50.0636	0.876113	9.52428	-3.32781	0.00300293	0.00150146	3.32781	
5.77654	-1.21875	49.785	4.98169	0.0241089	0.00457764	0.00152588	6.20514	-0.881071	50.0626	0.876095	9.52448	-3.31934	0.00308838	0.00321045	3.31934	
5.8634	-1.21875	49.9551	4.98016	0.0247192	0.00152588	-0.0128174	6.21317	-0.885602	50.0614	0.876075	9.52471	-3.31154	0.00308838	0.00450439	3.31154	
6.86235	-0.59375	50.9438	4.97803	0.0259399	0.00274658	-0.00701904	6.22083	-0.890085	50.0604	0.876057	9.52491	-3.30408	0.00303955	0.00527344	3.30408	
5.12505	-0.4375	49.9338	4.97711	0.0250244	0.000305176	0.0296021	6.22821	-0.8943	50.0596	0.876043	9.52507	-3.29686	0.00296631	0.00767822	3.29686	
7.77444	-0.84375	50.0189	4.98169	0.0250244	0.0012207	-0.00518799	6.23532	-0.898172	50.059	0.876032	9.5252	-3.28988	0.00294189	0.00595703	3.28988	
0.651489	-1.28125	49.9338	4.97864	0.0292969	0.0012207	-0.0350952	6.24162	-0.901879	50.0583	0.87602	9.52533	-3.28371	0.00283203	0.000219727	3.28371	
4.90789	-2.75	49.7318	4.97925	0.0262451	0.00213623	-0.0106812	6.246	-0.905853	50.0576	0.876007	9.52548	-3.27948	0.00285645	-0.000805664	3.27948	
5.47251	5.375	49.9445	4.98444	0.0222778	0.00335693	-0.0302124	6.24883	-0.909343	50.0567	0.875992	9.52565	-3.27682	0.00286865	-0.00264893	3.27682	
6.73206	-0.21875	50.1465	4.9762	0.0228882	0.00427246	-0.0531006	6.25118	-0.910941	50.0558	0.875977	9.52583	-3.27465	0.00279541	-0.0041748	3.27465	
6.55833	-0.53125	49.7637	4.97437	0.0265503	0.00152588	0.032959	6.25352	-0.911233	50.0549	0.875961	9.52601	-3.27249	0.00279541	-0.000646973	3.27249	
6.38459	0.03125	52.0176	4.98077	0.0262451	0.00274658	0.0274658	6.25597	-0.911144	50.0543	0.87595	9.52614	-3.27017	0.00284424	0.00336914	3.27017	
6.64519	-0.53125	50.0508	4.98169	0.0247192	0.00152588	-0.0158691	6.25848	-0.910647	50.0542	0.875949	9.52615	-3.26766	0.00274658	0.00301514	3.26766	
4.86445	-0.96875	50.1784	4.9826	0.0253296	0.00213623	-0.00671387	6.26083	-0.909913	50.0545	0.875953	9.52609	-3.26526	0.00264893	0.00065918	3.26526	
-8.2522	-0.71875	50.0933	4.97986	0.0271606	0.00152588	-0.0100708	6.26047	-0.909135	50.0548	0.875959	9.52603	-3.26556	0.00255127	0.00102539	3.26556	
6.55833	1.21875	50.0295	4.97986	0.0244141	0.00213623	0.0540161	6.25545	-0.908004	50.0551	0.875964	9.52597	-3.27051	0.00247803	0.00400391	3.27051	
5.73311	-0.09375	50.0933	4.98199	0.0234985	0.00213623	0.0234985	6.24837	-0.906096	50.0554	0.87597	9.52591	-3.27753	0.00240479	0.0067627	3.27753	
7.20981	0.03125	50.3166	4.9826	0.0216675	0.00457764	0.0164795	6.24157	-0.903528	50.0558	0.875976	9.52584	-3.28426	0.00250244	0.0086792	3.28426	
7.42698	0.46875	50.2953	4.97345	0.0241089	0.00396729	0.043335	6.23542	-0.900422	50.0562	0.875984	9.52574	-3.29032	0.00249023	0.00817871	3.29032	
4.99475	-0.84375	49.7212	4.98749	0.0271606	0.0012207	-0.00915527	6.22981	-0.896845	50.0567	0.875993	9.52564	-3.29583	0.0024292	0.00571289	3.29583	
3.82207	-0.78125	49.8488	4.99573	0.0241089	0.00213623	-0.00579834	6.22382	-0.893147	50.0571	0.876	9.52556	-3.30174	0.00238037	0.00422363	3.30174	
0.434326	-2	49.9126	4.98688	0.027771	0.00366211	-0.0192261	6.21621	-0.889708	50.0574	0.876004	9.52552	-3.30931	0.00241699	0.00349121	3.30931	
5.51594	-0.53125	49.9232	4.99054	0.0259399	0.00335693	-0.0314331	6.20659	-0.886661	50.0575	0.876006	9.52549	-3.3189	0.00250244	0.00219727	3.3189	
6.2543	2.90625	50.0189	4.99176	0.0256348	0.00457764	0.0296021	6.1962	-0.883194	50.0576	0.876007	9.52548	-3.32927	0.00257568	0.00194092	3.32927	
5.34221	-0.375	50.0827	4.99054	0.0241089	0.00518799	0.038147	6.18596	-0.878539	50.0576	0.876008	9.52547	-3.33951	0.00274658	0.00168457	3.33951	
5.51594	-1.34375	49.9764	4.98413	0.0271606	0.00213623	0.00396729	6.17572	-0.873375	50.0576	0.876008	9.52547	-3.34975	0.00263672	0.00192871	3.34975	
4.99475	-2.125	49.9764	4.97406	0.0265503	0.00335693	-0.0265503	6.16532	-0.868654	50.0576	0.876008	9.52547	-3.36015	0.00258789	0.000805664	3.36015	
4.60386	-1.53125	49.8275	4.99664	0.0244141	0.00793457	0.0146484	6.15457	-0.864665	50.0575	0.876006	9.52549	-3.37092	0.00284424	0.0019043	3.37092	
4.08267	-2.28125	49.9764	4.9939	0.0241089	0.00152588	-0.0424194	6.14322	-0.861437	50.0573	0.876003	9.52553	-3.3823	0.00279541	0.000488281	3.3823	
16.5913	-0.15625	50.2528	4.98749	0.0253296	0.00366211	-0.090332	6.13301	-0.858757	50.0571	0.875999	9.52557	-3.39256	0.00292969	-0.00430908	3.39256	
7.38354	1.59375	50.2634	4.98444	0.0274658	0.00427246	0.00457764	6.12628	-0.855793	50.057	0.875997	9.52559	-3.39932	0.00305176	-0.00391846	3.39932	
6.47146	-0.53125	50.1784	4.98871	0.0244141	0.00396729	0.0894165	6.12184	-0.852013	50.057	0.875997	9.52559	-3.40375	0.00316162	0.00106201	3.40375	
5.68967	-0.71875	50.1784	4.98932	0.0259399	0.00213623	0.0161743	6.11781	-0.847866	50.0571	0.875999	9.52558	-3.40777	0.00316162	0.00213623	3.40777	
6.08057	-0.53125	49.8913	4.99298	0.0247192	0.00213623	0.0878906	6.11382	-0.843725	50.0572	0.876001	9.52556	-3.41173	0.00311279	0.00686035	3.41173	
5.29878	-0.90625	50.0614	4.99084	0.0271606	0.00274658	-0.0222778	6.10978	-0.839622	50.0573	0.876002	9.52554	-3.41576	0.00305176	0.00809326	3.41576	
5.77654	-0.625	50.0827	4.9881	0.0241089	0.0100708	-0.0418091	6.10556	-0.835602	50.0573	0.876003	9.52553	-3.41997	0.00339355	0.00510254	3.41997	
10.337	-0.625	50.274	4.98932	0.0234985	0.00366211	-0.0213623	6.10193	-0.831635	50.0574	0.876004	9.52551	-3.42358	0.00343018	0.00314941	3.42358	
7.07952	0.59375	50.5186	4.98566	0.0259399	0.00274658	-0.0244141	6.09983	-0.82749	50.0576	0.876009	9.52546	-3.42563	0.003479	0.00280762	3.42563	
6.81892	-4.71875	50.4016	4.98291	0.0253296	0.00274658	-0.045166	6.09889	-0.823621	50.0581	0.876017	9.52537	-3.42649	0.00350342	0.00126953	3.42649	
5.29878	-0.75	50.1677	4.99542	0.0234985	0.00244141	0.0460815	6.09822	-0.820864	50.0587	0.876028	9.52525	-3.42702	0.00354004	0.00351563	3.42702	
5.16848	-1.96875	49.9764	4.99542	0.0283813	0.00427246	0.0424194	6.0973	-0.818964	50.0594	0.87604	9.52511	-3.42781	0.00362549	0.00305176	3.42781	
5.77654	-1.5625	49.296	4.99298	0.0271606	0.00152588	0.0256348	6.09595	-0.817592	50.0599	0.876049	9.525	-3.42905	0.00360107	0.00313721	3.42905	
5.64624	-0.84375	50.2103	4.99451	0.0241089	0.00213623	-0.0723267	6.09434	-0.816681	50.0602	0.876054	9.52494	-3.43061	0.00350342	-0.000415039	3.43061	
5.42908	-1.03125	50.1465	4.9939	0.0247192	0.000305176	-0.0274658	6.09249	-0.81596	50.0605	0.876058	9.5249	-3.43242	0.00335693	-0.00324707	3.43242	
15.7226	-1.09375	50.1146	4.99969	0.0256348	0.00396729	-0.0271606	6.09192	-0.815379	50.0607	0.876063	9.52485	-3.43293	0.0034668	-0.00396729	3.43293	
5.73311	-2.125	50.0614	4.9881	0.0265503	0.00213623	-0.0204468	6.0942	-0.81514	50.061	0.876068	9.52479	-3.43059	0.0034668	-0.00455322	3.43059	
6.08057	-9.59375	50.1039	4.99054	0.0247192	0.00152588	0.0524902	6.09778	-0.816722	50.0613	0.876073	9.52473	-3.42695	0.00338135	-0.00168457	3.42695	
5.12505	-1.96875	49.8382	4.99146	0.0256348	0.00488281	0.0167847	6.10103	-0.821353	50.0616	0.876078	9.52468	-3.42365	0.00344238	0.000244141	3.42365	
6.16743	-1.125	50.0402	4.9939	0.0268555	0.00305176	0.0796509	6.10386	-0.827587	50.0618	0.876081	9.52464	-3.42078	0.00338135	0.00224609	3.42078	
6.64519	-0.71875	50.4016	4.98322	0.0259399	0.00213623	-0.0164795	6.10655	-0.833856	50.062	0.876084	9.5246	-3.41805	0.00325928	6.10352E-005	3.41805	
8.07847	-0.34375	50.3166	4.97986	0.0247192	-0.00305176	0.00457764	6.10963	-0.839839	50.0623	0.87609	9.52453	-3.41491	0.00305176	8.54492E-005	3.41491	
10.6844	-0.75	50.2634	4.98505	0.0247192	0.00305176	-0.0393677	6.114	-0.845427	50.0628	0.876098	9.52444	-3.41044	0.00303955	-0.000427246	3.41044	
6.60176	-0.8125	50.189	4.99268	0.0265503	0.00274658	-0.0140381	6.12002	-0.850707	50.0634	0.876109	9.52432	-3.4043	0.00283203	-0.00157471	3.4043	
6.55833	-2.78125	50.2209	4.98444	0.0247192	0.00427246	-0.0570679	6.12675	-0.856074	50.064	0.87612	9.52419	-3.39743	0.00294189	-0.00216064	3.39743	
6.34116	-1	50.0614	4.98322	0.0244141	-0.00213623	0.0442505	6.13349	-0.861867	50.0647	0.876133	9.52405	-3.39055	0.00270996	0.00322266	3.39055	
5.16848	-0.6875	50.3697	4.98657	0.0231934	0.00152588	0.0100708	6.13998	-0.867772	50.0655	0.876146	9.5239	-3.38392	0.0026001	0.00344238	3.38392	
6.90579	-1.0625	50.1252	4.98169	0.0262451	0.00488281	0.0259399	6.14609	-0.873464	50.0663	0.87616	9.52373	-3.37765	0.00263672	0.00090332	3.37765	
7.73101	0.21875	50.4441	4.97345	0.0234985	0.00213623	-0.0119019	6.15231	-0.878819	50.0672	0.876176	9.52355	-3.37124	0.00263672	-0.000219727	3.37124	
7.81787	0.125	50.4654	4.97437	0.0234985	-0.00762939	-0.0582886	6.15918	-0.883518	50.0683	0.876195	9.52333	-3.36415	0.00224609	-0.00606689	3.36415	
-3.82207	-1.34375	49.6999	4.98199	0.0280762	0.00274658	0.0332642	6.16502	-0.887641	50.0695	0.876215	9.5231	-3.35808	0.00224609	-0.00384521	3.35808	
5.95027	-2.53125	49.7637	4.98322	0.0271606	0.00274658	0.0283813	6.16779	-0.89186	50.0705	0.876233	9.52289	-3.35511	0.00195313	-0.0010376	3.35511	
5.8634	3.96875	49.9445	4.98138	0.0253296	0.0012207	0.0265503	6.16879	-0.895755	50.0713	0.876248	9.52273	-3.35395	0.00185547	0.000878906	3.35395	
6.2543	-0.59375	50.0189	4.97925	0.0241089	0.00366211	-0.00366211	6.16964	-0.898213	50.072	0.87626	9.52259	-3.35296	0.00189209	0.00170898	3.35296	
6.16743	-0.96875	49.7425	4.97711	0.0265503	0.00213623	0.00213623	6.17044	-0.899745	50.0726	0.87627	9.52248	-3.35204	0.00186768	0.00360107	3.35204	
6.08057	-0.84375	50.0827	4.97803	0.0256348	0.0012207	-0.0146484	6.17121	-0.90119	50.073	0.876278	9.52239	-3.35118	0.00181885	0.00117188	3.35118	
5.8634	-1.71875	50.1784	4.97925	0.0228882	-0.00274658	-0.0341797	6.17187	-0.902703	50.0734	0.876285	9.52231	-3.35044	0.00153809	-0.00189209	3.35044	
3.8655	-1.15625	49.9232	4.97894	0.0259399	0.00457764	0.00946045	6.17205	-0.904447	50.0738	0.876292	9.52223	-3.35018	0.00166016	-0.00253906	3.35018	
-7.20981	-1.53125	49.6149	4.98047	0.0259399	0.0012207	0.0253296	6.16938	-0.906432	50.0741	0.876297	9.52217	-3.35279	0.00162354	0.00136719	3.35279	
5.77654	1.03125	49.9976	4.97833	0.0262451	0.00152588	-0.0204468	6.16223	-0.90828	50.0742	0.876298	9.52215	-3.35992	0.00167236	0.00164795	3.35992	
7.20981	-0.09375	50.2315	4.96918	0.0256348	0.00213623	-0.0668335	6.1533	-0.909431	50.0742	0.876299	9.52215	-3.36885	0.00159912	6.10352E-005	3.36885	
6.94922	0.375	50.3591	4.96735	0.020752	0.00213623	-0.0613403	6.14508	-0.909789	50.0743	0.876301	9.52213	-3.37705	0.00159912	-0.00157471	3.37705	
7.12295	0.15625	49.9976	4.9707	0.0259399	0.00183105	0.0558472	6.1377	-0.909443	50.0745	0.876304	9.52209	-3.38438	0.00161133	-0.00144043	3.38438	
7.07952	-0.21875	50.189	4.97406	0.0262451	0.00305176	0.0332642	6.13117	-0.908473	50.0747	0.876308	9.52204	-3.39087	0.00153809	-0.00078125	3.39087	
5.81997	0.09375	50.0189	4.97589	0.0259399	0.00762939	-0.0180054	6.12526	-0.907002	50.075	0.876312	9.52199	-3.39673	0.00172119	-0.0046875	3.39673	
-0.521191	-1.28125	49.9445	4.97009	0.0228882	0.00152588	-0.0012207	6.11858	-0.905222	50.0752	0.876316	9.52195	-3.40337	0.00169678	-0.00407715	3.40337	
6.47146	0.90625	50.1996	4.97559	0.0253296	0.00305176	-0.0460815	6.11008	-0.903186	50.0754	0.876319	9.52192	-3.41183	0.00194092	-0.00610352	3.41183	
6.86235	5.0625	50.1677	4.97101	0.0256348	0.00396729	-0.0131226	6.10108	-0.899793	50.0756	0.876322	9.52188	-3.4208	0.00197754	-0.00505371	3.4208	
7.25325	0.28125	50.3272	4.96704	0.0228882	0.00274658	0.0283813	6.09287	-0.894204	50.0758	0.876327	9.52182	-3.42895	0.00197754	-0.00335693	3.42895	
7.25325	0.03125	49.987	4.96796	0.027771	0.00213623	0.0393677	6.0856	-0.887378	50.0762	0.876333	9.52175	-3.43615	0.00189209	0.000500488	3.43615	
5.55938	-1.125	48.573	4.97528	0.0259399	0.00213623	0.0375366	6.07905	-0.880361	50.0763	0.876335	9.52173	-3.44268	0.00206299	0.000231934	3.44268	
5.12505	-0.78125	49.8807	4.97833	0.0231934	0.00823975	-0.0259399	6.0726	-0.873508	50.0759	0.876328	9.52181	-3.44921	0.00233154	-0.0012085	3.44921	
3.21401	-0.78125	49.8382	4.97711	0.0247192	0.00396729	0.00213623	6.06555	-0.866891	50.0752	0.876316	9.52195	-3.4564	0.00229492	-0.00216064	3.4564	
11.1188	-0.53125	49.9445	4.97192	0.0265503	0.00183105	-0.0247192	6.05851	-0.860412	50.0744	0.876301	9.52212	-3.46361	0.00228271	-0.00267334	3.46361	
5.73311	1.09375	50.0189	4.97681	0.0247192	0.00152588	-0.0466919	6.05279	-0.853743	50.0735	0.876286	9.52229	-3.4695	0.00264893	-0.00220947	3.4695	
5.8634	-1.4375	50.0402	4.97925	0.0241089	0.00396729	0.0250244	6.04793	-0.846742	50.0726	0.876271	9.52247	-3.47454	0.00269775	-0.00253906	3.47454	
6.55833	-1.375	49.8063	4.97681	0.0265503	0.00152588	0.038147	6.04321	-0.839951	50.0717	0.876255	9.52265	-3.47944	0.00264893	-0.00214844	3.47944	
5.21191	-0.34375	49.8488	4.98108	0.0247192	0.00457764	0.0460815	6.03866	-0.833578	50.0707	0.876237	9.52285	-3.48419	0.0027832	-0.00136719	3.48419	
5.38564	-1.5625	49.4129	4.98047	0.0283813	0.00366211	0.00610352	6.03399	-0.827473	50.0695	0.876216	9.52309	-3.4891	0.0027832	-0.000976563	3.4891	
5.03818	-0.34375	49.9551	4.97681	0.0247192	0.0088501	0.0186157	6.029	-0.821659	50.0681	0.876192	9.52337	-3.49437	0.00305176	-0.000317383	3.49437	
11.0319	0.21875	50.2315	4.97833	0.0228882	0.00396729	-0.071106	6.02455	-0.815853	50.0666	0.876166	9.52366	-3.49911	0.00316162	-0.00257568	3.49911	
7.20981	0.78125	50.1465	4.97589	0.0234985	0.00671387	-0.0167847	6.02185	-0.809608	50.0653	0.876143	9.52393	-3.50209	0.00354004	-0.00187988	3.50209	
6.42803	-2	50.2103	4.98169	0.0241089	0.00213623	-0.0289917	6.02045	-0.803112	50.064	0.876121	9.52418	-3.50374	0.00344238	-0.00341797	3.50374	
6.16743	-0.71875	50.0933	4.97681	0.0259399	0.0012207	-0.0125122	6.01942	-0.796956	50.0629	0.876101	9.52441	-3.50498	0.00344238	-0.00493164	3.50498	
